# OpenSignals Text File Format. Version 1
# {"00:21:06:BE:15:4F": {"position": 0, "device": "bitalino_rev", "device name": "00:21:06:BE:15:4F", "device connection": "BTH00:21:06:BE:15:4F", "sampling rate": 1000, "resolution": [4, 1, 1, 1, 1, 10, 10, 10, 10, 6, 6], "firmware version": 1282, "comments": "", "keywords": "", "mode": 0, "sync interval": 2, "date": "2025-2-2", "time": "13:40:25.742", "channels": [1, 2, 3, 4, 5, 6], "sensor": ["RAW", "RAW", "RAW", "RAW", "RAW", "RAW"], "label": ["A1", "A2", "A3", "A4", "A5", "A6"], "column": ["nSeq", "I1", "I2", "O1", "O2", "A1", "A2", "A3", "A4", "A5", "A6"], "special": [{}, {}, {}, {}, {}, {}], "digital IO": [0, 0, 1, 1]}}
# EndOfHeader
0	0	0	0	0	419	1	0	0	0	0	
1	0	0	0	0	419	0	0	0	0	0	
2	0	0	0	0	419	0	0	0	0	0	
3	0	0	0	0	419	0	0	0	0	0	
4	0	0	0	0	419	0	0	0	0	0	
5	0	0	0	0	418	0	0	0	0	0	
6	0	0	0	0	418	0	0	0	0	0	
7	0	0	0	0	418	0	0	0	0	0	
8	0	0	0	0	417	1	0	0	0	0	
9	0	0	0	0	418	0	0	0	0	0	
10	0	0	0	0	417	0	0	0	0	0	
11	0	0	0	0	417	0	0	0	0	0	
12	0	0	0	0	417	0	0	0	0	0	
13	0	0	0	0	417	0	0	0	0	0	
14	0	0	0	0	417	0	0	0	0	0	
15	0	0	0	0	417	0	0	0	0	0	
0	0	0	0	0	416	1	0	0	0	0	
1	0	0	0	0	417	0	0	0	0	0	
2	0	0	0	0	416	0	0	0	0	0	
3	0	0	0	0	416	0	0	0	0	0	
4	0	0	0	0	416	0	0	0	0	0	
5	0	0	0	0	416	0	0	0	0	0	
6	0	0	0	0	416	0	0	0	0	0	
7	0	0	0	0	415	0	0	0	0	0	
8	0	0	0	0	415	1	0	0	0	0	
9	0	0	0	0	415	0	0	0	0	0	
10	0	0	0	0	415	0	0	0	0	0	
11	0	0	0	0	415	0	0	0	0	0	
12	0	0	0	0	414	0	0	0	0	0	
13	0	0	0	0	414	0	0	0	0	0	
14	0	0	0	0	414	0	0	0	0	0	
15	0	0	0	0	414	0	0	0	0	0	
0	0	0	0	0	414	1	0	0	0	0	
1	0	0	0	0	414	0	0	0	0	0	
2	0	0	0	0	414	0	0	0	0	0	
3	0	0	0	0	413	0	0	0	0	0	
4	0	0	0	0	413	0	0	0	0	0	
5	0	0	0	0	413	0	0	0	0	0	
6	0	0	0	0	413	0	0	0	0	0	
7	0	0	0	0	413	0	0	0	0	0	
8	0	0	0	0	412	1	0	0	0	0	
9	0	0	0	0	412	0	0	0	0	0	
10	0	0	0	0	412	0	0	0	0	0	
11	0	0	0	0	412	0	0	0	0	0	
12	0	0	0	0	412	0	0	0	0	0	
13	0	0	0	0	411	0	0	0	0	0	
14	0	0	0	0	411	0	0	0	0	0	
15	0	0	0	0	411	0	0	0	0	0	
0	0	0	0	0	410	1	0	0	0	0	
1	0	0	0	0	411	0	0	0	0	0	
2	0	0	0	0	410	0	0	0	0	0	
3	0	0	0	0	410	0	0	0	0	0	
4	0	0	0	0	410	0	0	0	0	0	
5	0	0	0	0	409	0	0	0	0	0	
6	0	0	0	0	410	0	0	0	0	0	
7	0	0	0	0	409	0	0	0	0	0	
8	0	0	0	0	409	1	0	0	0	0	
9	0	0	0	0	409	0	0	0	0	0	
10	0	0	0	0	408	0	0	0	0	0	
11	0	0	0	0	409	0	0	0	0	0	
12	0	0	0	0	408	0	0	0	0	0	
13	0	0	0	0	408	0	0	0	0	0	
14	0	0	0	0	408	0	0	0	0	0	
15	0	0	0	0	408	0	0	0	0	0	
0	0	0	0	0	407	0	0	0	0	0	
1	0	0	0	0	407	0	0	0	0	0	
2	0	0	0	0	407	0	0	0	0	0	
3	0	0	0	0	407	0	0	0	0	0	
4	0	0	0	0	406	0	0	0	0	0	
5	0	0	0	0	406	0	0	0	0	0	
6	0	0	0	0	406	0	0	0	0	0	
7	0	0	0	0	405	0	0	0	0	0	
8	0	0	0	0	406	0	0	0	0	0	
9	0	0	0	0	405	0	0	0	0	0	
10	0	0	0	0	405	0	0	0	0	0	
11	0	0	0	0	404	0	0	0	0	0	
12	0	0	0	0	404	0	0	0	0	0	
13	0	0	0	0	404	0	0	0	0	0	
14	0	0	0	0	404	0	0	0	0	0	
15	0	0	0	0	404	0	0	0	0	0	
0	0	0	0	0	404	0	0	0	0	0	
1	0	0	0	0	403	0	0	0	0	0	
2	0	0	0	0	403	0	0	0	0	0	
3	0	0	0	0	403	0	0	0	0	0	
4	0	0	0	0	403	0	0	0	0	0	
5	0	0	0	0	402	0	0	0	0	0	
6	0	0	0	0	402	0	0	0	0	0	
7	0	0	0	0	402	0	0	0	0	0	
8	0	0	0	0	401	1	0	0	0	0	
9	0	0	0	0	401	0	0	0	0	0	
10	0	0	0	0	401	0	0	0	0	0	
11	0	0	0	0	401	0	0	0	0	0	
12	0	0	0	0	401	0	0	0	0	0	
13	0	0	0	0	401	0	0	0	0	0	
14	0	0	0	0	401	0	0	0	0	0	
15	0	0	0	0	400	0	0	0	0	0	
0	0	0	0	0	400	1	0	0	0	0	
1	0	0	0	0	400	0	0	0	0	0	
2	0	0	0	0	400	0	0	0	0	0	
3	0	0	0	0	400	0	0	0	0	0	
4	0	0	0	0	400	0	0	0	0	0	
5	0	0	0	0	400	0	0	0	0	0	
6	0	0	0	0	400	0	0	0	0	0	
7	0	0	0	0	399	0	0	0	0	0	
8	0	0	0	0	399	1	0	0	0	0	
9	0	0	0	0	399	0	0	0	0	0	
10	0	0	0	0	399	0	0	0	0	0	
11	0	0	0	0	399	0	0	0	0	0	
12	0	0	0	0	399	0	0	0	0	0	
13	0	0	0	0	399	0	0	0	0	0	
14	0	0	0	0	399	0	0	0	0	0	
15	0	0	0	0	399	0	0	0	0	0	
0	0	0	0	0	399	1	0	0	0	0	
1	0	0	0	0	399	0	0	0	0	0	
2	0	0	0	0	399	0	0	0	0	0	
3	0	0	0	0	399	0	0	0	0	0	
4	0	0	0	0	400	0	0	0	0	0	
5	0	0	0	0	400	0	0	0	0	0	
6	0	0	0	0	400	0	0	0	0	0	
7	0	0	0	0	400	0	0	0	0	0	
8	0	0	0	0	400	1	0	0	0	0	
9	0	0	0	0	400	0	0	0	0	0	
10	0	0	0	0	400	0	0	0	0	0	
11	0	0	0	0	400	0	0	0	0	0	
12	0	0	0	0	400	0	0	0	0	0	
13	0	0	0	0	400	0	0	0	0	0	
14	0	0	0	0	400	0	0	0	0	0	
15	0	0	0	0	400	0	0	0	0	0	
0	0	0	0	0	400	1	0	0	0	0	
1	0	0	0	0	400	0	0	0	0	0	
2	0	0	0	0	400	0	0	0	0	0	
3	0	0	0	0	401	0	0	0	0	0	
4	0	0	0	0	401	0	0	0	0	0	
5	0	0	0	0	401	0	0	0	0	0	
6	0	0	0	0	401	0	0	0	0	0	
7	0	0	0	0	401	0	0	0	0	0	
8	0	0	0	0	401	1	0	0	0	0	
9	0	0	0	0	401	0	0	0	0	0	
10	0	0	0	0	401	0	0	0	0	0	
11	0	0	0	0	402	0	0	0	0	0	
12	0	0	0	0	402	0	0	0	0	0	
13	0	0	0	0	402	0	0	0	0	0	
14	0	0	0	0	402	0	0	0	0	0	
15	0	0	0	0	402	0	0	0	0	0	
0	0	0	0	0	402	1	0	0	0	0	
1	0	0	0	0	402	0	0	0	0	0	
2	0	0	0	0	402	0	0	0	0	0	
3	0	0	0	0	403	0	0	0	0	0	
4	0	0	0	0	402	0	0	0	0	0	
5	0	0	0	0	403	0	0	0	0	0	
6	0	0	0	0	403	0	0	0	0	0	
7	0	0	0	0	403	0	0	0	0	0	
8	0	0	0	0	403	1	0	0	0	0	
9	0	0	0	0	403	0	0	0	0	0	
10	0	0	0	0	404	0	0	0	0	0	
11	0	0	0	0	404	0	0	0	0	0	
12	0	0	0	0	404	0	0	0	0	0	
13	0	0	0	0	404	0	0	0	0	0	
14	0	0	0	0	404	0	0	0	0	0	
15	0	0	0	0	405	0	0	0	0	0	
0	0	0	0	0	404	1	0	0	0	0	
1	0	0	0	0	405	0	0	0	0	0	
2	0	0	0	0	405	0	0	0	0	0	
3	0	0	0	0	405	0	0	0	0	0	
4	0	0	0	0	405	0	0	0	0	0	
5	0	0	0	0	405	0	0	0	0	0	
6	0	0	0	0	406	0	0	0	0	0	
7	0	0	0	0	406	0	0	0	0	0	
8	0	0	0	0	406	1	0	0	0	0	
9	0	0	0	0	406	0	0	0	0	0	
10	0	0	0	0	406	0	0	0	0	0	
11	0	0	0	0	406	0	0	0	0	0	
12	0	0	0	0	407	0	0	0	0	0	
13	0	0	0	0	407	0	0	0	0	0	
14	0	0	0	0	407	0	0	0	0	0	
15	0	0	0	0	407	0	0	0	0	0	
0	0	0	0	0	408	0	0	0	0	0	
1	0	0	0	0	408	0	0	0	0	0	
2	0	0	0	0	408	0	0	0	0	0	
3	0	0	0	0	408	0	0	0	0	0	
4	0	0	0	0	408	0	0	0	0	0	
5	0	0	0	0	408	0	0	0	0	0	
6	0	0	0	0	408	0	0	0	0	0	
7	0	0	0	0	409	0	0	0	0	0	
8	0	0	0	0	409	0	0	0	0	0	
9	0	0	0	0	409	0	0	0	0	0	
10	0	0	0	0	409	0	0	0	0	0	
11	0	0	0	0	409	0	0	0	0	0	
12	0	0	0	0	409	0	0	0	0	0	
13	0	0	0	0	410	0	0	0	0	0	
14	0	0	0	0	410	0	0	0	0	0	
15	0	0	0	0	410	0	0	0	0	0	
0	0	0	0	0	410	1	0	0	0	0	
1	0	0	0	0	411	0	0	0	0	0	
2	0	0	0	0	411	0	0	0	0	0	
3	0	0	0	0	411	0	0	0	0	0	
4	0	0	0	0	411	0	0	0	0	0	
5	0	0	0	0	411	0	0	0	0	0	
6	0	0	0	0	411	0	0	0	0	0	
7	0	0	0	0	412	0	0	0	0	0	
8	0	0	0	0	412	1	0	0	0	0	
9	0	0	0	0	412	0	0	0	0	0	
10	0	0	0	0	412	0	0	0	0	0	
11	0	0	0	0	412	0	0	0	0	0	
12	0	0	0	0	412	0	0	0	0	0	
13	0	0	0	0	412	0	0	0	0	0	
14	0	0	0	0	412	0	0	0	0	0	
15	0	0	0	0	412	0	0	0	0	0	
0	0	0	0	0	412	1	0	0	0	0	
1	0	0	0	0	412	0	0	0	0	0	
2	0	0	0	0	412	0	0	0	0	0	
3	0	0	0	0	413	0	0	0	0	0	
4	0	0	0	0	413	0	0	0	0	0	
5	0	0	0	0	413	0	0	0	0	0	
6	0	0	0	0	413	0	0	0	0	0	
7	0	0	0	0	413	0	0	0	0	0	
8	0	0	0	0	413	1	0	0	0	0	
9	0	0	0	0	414	0	0	0	0	0	
10	0	0	0	0	414	0	0	0	0	0	
11	0	0	0	0	414	0	0	0	0	0	
12	0	0	0	0	414	0	0	0	0	0	
13	0	0	0	0	414	0	0	0	0	0	
14	0	0	0	0	414	0	0	0	0	0	
15	0	0	0	0	414	0	0	0	0	0	
0	0	0	0	0	414	1	0	0	0	0	
1	0	0	0	0	414	0	0	0	0	0	
2	0	0	0	0	414	0	0	0	0	0	
3	0	0	0	0	415	0	0	0	0	0	
4	0	0	0	0	415	0	0	0	0	0	
5	0	0	0	0	415	0	0	0	0	0	
6	0	0	0	0	415	0	0	0	0	0	
7	0	0	0	0	415	0	0	0	0	0	
8	0	0	0	0	415	1	0	0	0	0	
9	0	0	0	0	415	0	0	0	0	0	
10	0	0	0	0	416	0	0	0	0	0	
11	0	0	0	0	416	0	0	0	0	0	
12	0	0	0	0	416	0	0	0	0	0	
13	0	0	0	0	416	0	0	0	0	0	
14	0	0	0	0	416	0	0	0	0	0	
15	0	0	0	0	417	0	0	0	0	0	
0	0	0	0	0	417	1	0	0	0	0	
1	0	0	0	0	417	0	0	0	0	0	
2	0	0	0	0	417	0	0	0	0	0	
3	0	0	0	0	417	0	0	0	0	0	
4	0	0	0	0	417	0	0	0	0	0	
5	0	0	0	0	417	0	0	0	0	0	
6	0	0	0	0	417	0	0	0	0	0	
7	0	0	0	0	417	0	0	0	0	0	
8	0	0	0	0	417	1	0	0	0	0	
9	0	0	0	0	418	0	0	0	0	0	
10	0	0	0	0	417	0	0	0	0	0	
11	0	0	0	0	418	0	0	0	0	0	
12	0	0	0	0	418	0	0	0	0	0	
13	0	0	0	0	418	0	0	0	0	0	
14	0	0	0	0	418	0	0	0	0	0	
15	0	0	0	0	418	0	0	0	0	0	
0	0	0	0	0	419	1	0	0	0	0	
1	0	0	0	0	419	0	0	0	0	0	
2	0	0	0	0	419	0	0	0	0	0	
3	0	0	0	0	419	0	0	0	0	0	
4	0	0	0	0	419	0	0	0	0	0	
5	0	0	0	0	419	0	0	0	0	0	
6	0	0	0	0	419	0	0	0	0	0	
7	0	0	0	0	419	0	0	0	0	0	
8	0	0	0	0	419	1	0	0	0	0	
9	0	0	0	0	419	0	0	0	0	0	
10	0	0	0	0	419	0	0	0	0	0	
11	0	0	0	0	419	0	0	0	0	0	
12	0	0	0	0	419	0	0	0	0	0	
13	0	0	0	0	419	0	0	0	0	0	
14	0	0	0	0	419	0	0	0	0	0	
15	0	0	0	0	419	0	0	0	0	0	
0	0	0	0	0	419	1	0	0	0	0	
1	0	0	0	0	419	0	0	0	0	0	
2	0	0	0	0	419	0	0	0	0	0	
3	0	0	0	0	420	0	0	0	0	0	
4	0	0	0	0	419	0	0	0	0	0	
5	0	0	0	0	420	0	0	0	0	0	
6	0	0	0	0	420	0	0	0	0	0	
7	0	0	0	0	420	0	0	0	0	0	
8	0	0	0	0	420	0	0	0	0	0	
9	0	0	0	0	420	0	0	0	0	0	
10	0	0	0	0	420	0	0	0	0	0	
11	0	0	0	0	420	0	0	0	0	0	
12	0	0	0	0	420	0	0	0	0	0	
13	0	0	0	0	420	0	0	0	0	0	
14	0	0	0	0	420	0	0	0	0	0	
15	0	0	0	0	420	0	0	0	0	0	
0	0	0	0	0	420	0	0	0	0	0	
1	0	0	0	0	420	0	0	0	0	0	
2	0	0	0	0	420	0	0	0	0	0	
3	0	0	0	0	420	0	0	0	0	0	
4	0	0	0	0	420	0	0	0	0	0	
5	0	0	0	0	420	0	0	0	0	0	
6	0	0	0	0	420	0	0	0	0	0	
7	0	0	0	0	420	0	0	0	0	0	
8	0	0	0	0	420	0	0	0	0	0	
9	0	0	0	0	421	0	0	0	0	0	
10	0	0	0	0	420	0	0	0	0	0	
11	0	0	0	0	421	0	0	0	0	0	
12	0	0	0	0	421	0	0	0	0	0	
13	0	0	0	0	420	0	0	0	0	0	
14	0	0	0	0	420	0	0	0	0	0	
15	0	0	0	0	420	0	0	0	0	0	
0	0	0	0	0	420	1	0	0	0	0	
1	0	0	0	0	420	0	0	0	0	0	
2	0	0	0	0	421	0	0	0	0	0	
3	0	0	0	0	421	0	0	0	0	0	
4	0	0	0	0	420	0	0	0	0	0	
5	0	0	0	0	420	0	0	0	0	0	
6	0	0	0	0	420	0	0	0	0	0	
7	0	0	0	0	420	0	0	0	0	0	
8	0	0	0	0	420	1	0	0	0	0	
9	0	0	0	0	421	0	0	0	0	0	
10	0	0	0	0	421	0	0	0	0	0	
11	0	0	0	0	421	0	0	0	0	0	
12	0	0	0	0	421	0	0	0	0	0	
13	0	0	0	0	421	0	0	0	0	0	
14	0	0	0	0	421	0	0	0	0	0	
15	0	0	0	0	421	0	0	0	0	0	
0	0	0	0	0	421	1	0	0	0	0	
1	0	0	0	0	421	0	0	0	0	0	
2	0	0	0	0	421	0	0	0	0	0	
3	0	0	0	0	421	0	0	0	0	0	
4	0	0	0	0	421	0	0	0	0	0	
5	0	0	0	0	420	0	0	0	0	0	
6	0	0	0	0	420	0	0	0	0	0	
7	0	0	0	0	420	0	0	0	0	0	
8	0	0	0	0	420	1	0	0	0	0	
9	0	0	0	0	420	0	0	0	0	0	
10	0	0	0	0	420	0	0	0	0	0	
11	0	0	0	0	420	0	0	0	0	0	
12	0	0	0	0	421	0	0	0	0	0	
13	0	0	0	0	421	0	0	0	0	0	
14	0	0	0	0	421	0	0	0	0	0	
15	0	0	0	0	420	0	0	0	0	0	
0	0	0	0	0	420	1	0	0	0	0	
1	0	0	0	0	421	0	0	0	0	0	
2	0	0	0	0	420	0	0	0	0	0	
3	0	0	0	0	420	0	0	0	0	0	
4	0	0	0	0	421	0	0	0	0	0	
5	0	0	0	0	420	0	0	0	0	0	
6	0	0	0	0	421	0	0	0	0	0	
7	0	0	0	0	420	0	0	0	0	0	
8	0	0	0	0	420	1	0	0	0	0	
9	0	0	0	0	420	0	0	0	0	0	
10	0	0	0	0	420	0	0	0	0	0	
11	0	0	0	0	420	0	0	0	0	0	
12	0	0	0	0	420	0	0	0	0	0	
13	0	0	0	0	420	0	0	0	0	0	
14	0	0	0	0	420	0	0	0	0	0	
15	0	0	0	0	420	0	0	0	0	0	
0	0	0	0	0	420	1	0	0	0	0	
1	0	0	0	0	420	0	0	0	0	0	
2	0	0	0	0	420	0	0	0	0	0	
3	0	0	0	0	420	0	0	0	0	0	
4	0	0	0	0	420	0	0	0	0	0	
5	0	0	0	0	420	0	0	0	0	0	
6	0	0	0	0	421	0	0	0	0	0	
7	0	0	0	0	420	0	0	0	0	0	
8	0	0	0	0	420	1	0	0	0	0	
9	0	0	0	0	420	0	0	0	0	0	
10	0	0	0	0	420	0	0	0	0	0	
11	0	0	0	0	420	0	0	0	0	0	
12	0	0	0	0	420	0	0	0	0	0	
13	0	0	0	0	420	0	0	0	0	0	
14	0	0	0	0	420	0	0	0	0	0	
15	0	0	0	0	420	0	0	0	0	0	
0	0	0	0	0	420	1	0	0	0	0	
1	0	0	0	0	420	0	0	0	0	0	
2	0	0	0	0	420	0	0	0	0	0	
3	0	0	0	0	420	0	0	0	0	0	
4	0	0	0	0	420	0	0	0	0	0	
5	0	0	0	0	420	0	0	0	0	0	
6	0	0	0	0	420	0	0	0	0	0	
7	0	0	0	0	420	0	0	0	0	0	
8	0	0	0	0	420	1	0	0	0	0	
9	0	0	0	0	420	0	0	0	0	0	
10	0	0	0	0	420	0	0	0	0	0	
11	0	0	0	0	420	0	0	0	0	0	
12	0	0	0	0	420	0	0	0	0	0	
13	0	0	0	0	420	0	0	0	0	0	
14	0	0	0	0	420	0	0	0	0	0	
15	0	0	0	0	419	0	0	0	0	0	
0	0	0	0	0	419	1	0	0	0	0	
1	0	0	0	0	419	0	0	0	0	0	
2	0	0	0	0	419	0	0	0	0	0	
3	0	0	0	0	419	0	0	0	0	0	
4	0	0	0	0	419	0	0	0	0	0	
5	0	0	0	0	419	0	0	0	0	0	
6	0	0	0	0	419	0	0	0	0	0	
7	0	0	0	0	419	0	0	0	0	0	
8	0	0	0	0	419	0	0	0	0	0	
9	0	0	0	0	419	0	0	0	0	0	
10	0	0	0	0	419	0	0	0	0	0	
11	0	0	0	0	419	0	0	0	0	0	
12	0	0	0	0	419	0	0	0	0	0	
13	0	0	0	0	419	0	0	0	0	0	
14	0	0	0	0	419	0	0	0	0	0	
15	0	0	0	0	419	0	0	0	0	0	
0	0	0	0	0	419	0	0	0	0	0	
1	0	0	0	0	419	0	0	0	0	0	
2	0	0	0	0	419	0	0	0	0	0	
3	0	0	0	0	419	0	0	0	0	0	
4	0	0	0	0	419	0	0	0	0	0	
5	0	0	0	0	418	0	0	0	0	0	
6	0	0	0	0	418	0	0	0	0	0	
7	0	0	0	0	418	0	0	0	0	0	
8	0	0	0	0	418	0	0	0	0	0	
9	0	0	0	0	418	0	0	0	0	0	
10	0	0	0	0	418	0	0	0	0	0	
11	0	0	0	0	418	0	0	0	0	0	
12	0	0	0	0	418	0	0	0	0	0	
13	0	0	0	0	418	0	0	0	0	0	
14	0	0	0	0	418	0	0	0	0	0	
15	0	0	0	0	419	0	0	0	0	0	
0	0	0	0	0	418	1	0	0	0	0	
1	0	0	0	0	418	0	0	0	0	0	
2	0	0	0	0	418	0	0	0	0	0	
3	0	0	0	0	419	0	0	0	0	0	
4	0	0	0	0	418	0	0	0	0	0	
5	0	0	0	0	418	0	0	0	0	0	
6	0	0	0	0	418	0	0	0	0	0	
7	0	0	0	0	418	0	0	0	0	0	
8	0	0	0	0	418	1	0	0	0	0	
9	0	0	0	0	418	0	0	0	0	0	
10	0	0	0	0	418	0	0	0	0	0	
11	0	0	0	0	418	0	0	0	0	0	
12	0	0	0	0	418	0	0	0	0	0	
13	0	0	0	0	418	0	0	0	0	0	
14	0	0	0	0	418	0	0	0	0	0	
15	0	0	0	0	418	0	0	0	0	0	
0	0	0	0	0	418	1	0	0	0	0	
1	0	0	0	0	418	0	0	0	0	0	
2	0	0	0	0	418	0	0	0	0	0	
3	0	0	0	0	418	0	0	0	0	0	
4	0	0	0	0	418	0	0	0	0	0	
5	0	0	0	0	418	0	0	0	0	0	
6	0	0	0	0	418	0	0	0	0	0	
7	0	0	0	0	418	0	0	0	0	0	
8	0	0	0	0	418	1	0	0	0	0	
9	0	0	0	0	418	0	0	0	0	0	
10	0	0	0	0	418	0	0	0	0	0	
11	0	0	0	0	418	0	0	0	0	0	
12	0	0	0	0	418	0	0	0	0	0	
13	0	0	0	0	418	0	0	0	0	0	
14	0	0	0	0	418	0	0	0	0	0	
15	0	0	0	0	418	0	0	0	0	0	
0	0	0	0	0	417	1	0	0	0	0	
1	0	0	0	0	418	0	0	0	0	0	
2	0	0	0	0	417	0	0	0	0	0	
3	0	0	0	0	417	0	0	0	0	0	
4	0	0	0	0	418	0	0	0	0	0	
5	0	0	0	0	417	0	0	0	0	0	
6	0	0	0	0	418	0	0	0	0	0	
7	0	0	0	0	417	0	0	0	0	0	
8	0	0	0	0	417	1	0	0	0	0	
9	0	0	0	0	418	0	0	0	0	0	
10	0	0	0	0	418	0	0	0	0	0	
11	0	0	0	0	418	0	0	0	0	0	
12	0	0	0	0	418	0	0	0	0	0	
13	0	0	0	0	417	0	0	0	0	0	
14	0	0	0	0	417	0	0	0	0	0	
15	0	0	0	0	417	0	0	0	0	0	
0	0	0	0	0	417	1	0	0	0	0	
1	0	0	0	0	417	0	0	0	0	0	
2	0	0	0	0	417	0	0	0	0	0	
3	0	0	0	0	417	0	0	0	0	0	
4	0	0	0	0	417	0	0	0	0	0	
5	0	0	0	0	417	0	0	0	0	0	
6	0	0	0	0	417	0	0	0	0	0	
7	0	0	0	0	417	0	0	0	0	0	
8	0	0	0	0	417	1	0	0	0	0	
9	0	0	0	0	417	0	0	0	0	0	
10	0	0	0	0	418	0	0	0	0	0	
11	0	0	0	0	418	0	0	0	0	0	
12	0	0	0	0	417	0	0	0	0	0	
13	0	0	0	0	418	0	0	0	0	0	
14	0	0	0	0	418	0	0	0	0	0	
15	0	0	0	0	418	0	0	0	0	0	
0	0	0	0	0	418	1	0	0	0	0	
1	0	0	0	0	418	0	0	0	0	0	
2	0	0	0	0	418	0	0	0	0	0	
3	0	0	0	0	418	0	0	0	0	0	
4	0	0	0	0	418	0	0	0	0	0	
5	0	0	0	0	418	0	0	0	0	0	
6	0	0	0	0	418	0	0	0	0	0	
7	0	0	0	0	418	0	0	0	0	0	
8	0	0	0	0	418	1	0	0	0	0	
9	0	0	0	0	418	0	0	0	0	0	
10	0	0	0	0	418	0	0	0	0	0	
11	0	0	0	0	418	0	0	0	0	0	
12	0	0	0	0	419	0	0	0	0	0	
13	0	0	0	0	418	0	0	0	0	0	
14	0	0	0	0	419	0	0	0	0	0	
15	0	0	0	0	419	0	0	0	0	0	
0	0	0	0	0	419	0	0	0	0	0	
1	0	0	0	0	419	0	0	0	0	0	
2	0	0	0	0	419	0	0	0	0	0	
3	0	0	0	0	419	0	0	0	0	0	
4	0	0	0	0	419	0	0	0	0	0	
5	0	0	0	0	419	0	0	0	0	0	
6	0	0	0	0	420	0	0	0	0	0	
7	0	0	0	0	419	0	0	0	0	0	
8	0	0	0	0	420	0	0	0	0	0	
9	0	0	0	0	420	0	0	0	0	0	
10	0	0	0	0	420	0	0	0	0	0	
11	0	0	0	0	420	0	0	0	0	0	
12	0	0	0	0	420	0	0	0	0	0	
13	0	0	0	0	420	0	0	0	0	0	
14	0	0	0	0	420	0	0	0	0	0	
15	0	0	0	0	421	0	0	0	0	0	
0	0	0	0	0	421	1	0	0	0	0	
1	0	0	0	0	421	0	0	0	0	0	
2	0	0	0	0	422	0	0	0	0	0	
3	0	0	0	0	422	0	0	0	0	0	
4	0	0	0	0	422	0	0	0	0	0	
5	0	0	0	0	422	0	0	0	0	0	
6	0	0	0	0	422	0	0	0	0	0	
7	0	0	0	0	423	0	0	0	0	0	
8	0	0	0	0	423	1	0	0	0	0	
9	0	0	0	0	423	0	0	0	0	0	
10	0	0	0	0	423	0	0	0	0	0	
11	0	0	0	0	423	0	0	0	0	0	
12	0	0	0	0	423	0	0	0	0	0	
13	0	0	0	0	423	0	0	0	0	0	
14	0	0	0	0	423	0	0	0	0	0	
15	0	0	0	0	423	0	0	0	0	0	
0	0	0	0	0	424	1	0	0	0	0	
1	0	0	0	0	424	0	0	0	0	0	
2	0	0	0	0	424	0	0	0	0	0	
3	0	0	0	0	425	0	0	0	0	0	
4	0	0	0	0	425	0	0	0	0	0	
5	0	0	0	0	425	0	0	0	0	0	
6	0	0	0	0	425	0	0	0	0	0	
7	0	0	0	0	426	0	0	0	0	0	
8	0	0	0	0	426	1	0	0	0	0	
9	0	0	0	0	426	0	0	0	0	0	
10	0	0	0	0	427	0	0	0	0	0	
11	0	0	0	0	427	0	0	0	0	0	
12	0	0	0	0	427	0	0	0	0	0	
13	0	0	0	0	427	0	0	0	0	0	
14	0	0	0	0	427	0	0	0	0	0	
15	0	0	0	0	427	0	0	0	0	0	
0	0	0	0	0	428	1	0	0	0	0	
1	0	0	0	0	428	0	0	0	0	0	
2	0	0	0	0	428	0	0	0	0	0	
3	0	0	0	0	428	0	0	0	0	0	
4	0	0	0	0	428	0	0	0	0	0	
5	0	0	0	0	429	0	0	0	0	0	
6	0	0	0	0	429	0	0	0	0	0	
7	0	0	0	0	429	0	0	0	0	0	
8	0	0	0	0	429	1	0	0	0	0	
9	0	0	0	0	430	0	0	0	0	0	
10	0	0	0	0	430	0	0	0	0	0	
11	0	0	0	0	430	0	0	0	0	0	
12	0	0	0	0	431	0	0	0	0	0	
13	0	0	0	0	431	0	0	0	0	0	
14	0	0	0	0	431	0	0	0	0	0	
15	0	0	0	0	432	0	0	0	0	0	
0	0	0	0	0	432	1	0	0	0	0	
1	0	0	0	0	432	0	0	0	0	0	
2	0	0	0	0	432	0	0	0	0	0	
3	0	0	0	0	432	0	0	0	0	0	
4	0	0	0	0	432	0	0	0	0	0	
5	0	0	0	0	432	0	0	0	0	0	
6	0	0	0	0	433	0	0	0	0	0	
7	0	0	0	0	433	0	0	0	0	0	
8	0	0	0	0	433	1	0	0	0	0	
9	0	0	0	0	433	0	0	0	0	0	
10	0	0	0	0	433	0	0	0	0	0	
11	0	0	0	0	434	0	0	0	0	0	
12	0	0	0	0	434	0	0	0	0	0	
13	0	0	0	0	435	0	0	0	0	0	
14	0	0	0	0	435	0	0	0	0	0	
15	0	0	0	0	435	0	0	0	0	0	
0	0	0	0	0	435	1	0	0	0	0	
1	0	0	0	0	436	0	0	0	0	0	
2	0	0	0	0	436	0	0	0	0	0	
3	0	0	0	0	436	0	0	0	0	0	
4	0	0	0	0	436	0	0	0	0	0	
5	0	0	0	0	437	0	0	0	0	0	
6	0	0	0	0	437	0	0	0	0	0	
7	0	0	0	0	437	0	0	0	0	0	
8	0	0	0	0	437	1	0	0	0	0	
9	0	0	0	0	438	0	0	0	0	0	
10	0	0	0	0	438	0	0	0	0	0	
11	0	0	0	0	438	0	0	0	0	0	
12	0	0	0	0	439	0	0	0	0	0	
13	0	0	0	0	439	0	0	0	0	0	
14	0	0	0	0	439	0	0	0	0	0	
15	0	0	0	0	440	0	0	0	0	0	
0	0	0	0	0	440	1	0	0	0	0	
1	0	0	0	0	440	0	0	0	0	0	
2	0	0	0	0	440	0	0	0	0	0	
3	0	0	0	0	441	0	0	0	0	0	
4	0	0	0	0	441	0	0	0	0	0	
5	0	0	0	0	441	0	0	0	0	0	
6	0	0	0	0	441	0	0	0	0	0	
7	0	0	0	0	442	0	0	0	0	0	
8	0	0	0	0	442	1	0	0	0	0	
9	0	0	0	0	442	0	0	0	0	0	
10	0	0	0	0	443	0	0	0	0	0	
11	0	0	0	0	443	0	0	0	0	0	
12	0	0	0	0	443	0	0	0	0	0	
13	0	0	0	0	444	0	0	0	0	0	
14	0	0	0	0	444	0	0	0	0	0	
15	0	0	0	0	444	0	0	0	0	0	
0	0	0	0	0	444	0	0	0	0	0	
1	0	0	0	0	445	0	0	0	0	0	
2	0	0	0	0	445	0	0	0	0	0	
3	0	0	0	0	446	0	0	0	0	0	
4	0	0	0	0	446	0	0	0	0	0	
5	0	0	0	0	446	0	0	0	0	0	
6	0	0	0	0	447	0	0	0	0	0	
7	0	0	0	0	447	0	0	0	0	0	
8	0	0	0	0	448	0	0	0	0	0	
9	0	0	0	0	448	0	0	0	0	0	
10	0	0	0	0	448	0	0	0	0	0	
11	0	0	0	0	449	0	0	0	0	0	
12	0	0	0	0	449	0	0	0	0	0	
13	0	0	0	0	449	0	0	0	0	0	
14	0	0	0	0	450	0	0	0	0	0	
15	0	0	0	0	450	0	0	0	0	0	
0	0	0	0	0	451	0	0	0	0	0	
1	0	0	0	0	451	0	0	0	0	0	
2	0	0	0	0	451	0	0	0	0	0	
3	0	0	0	0	452	0	0	0	0	0	
4	0	0	0	0	452	0	0	0	0	0	
5	0	0	0	0	452	0	0	0	0	0	
6	0	0	0	0	453	0	0	0	0	0	
7	0	0	0	0	454	0	0	0	0	0	
8	0	0	0	0	454	1	0	0	0	0	
9	0	0	0	0	455	0	0	0	0	0	
10	0	0	0	0	455	0	0	0	0	0	
11	0	0	0	0	456	0	0	0	0	0	
12	0	0	0	0	456	0	0	0	0	0	
13	0	0	0	0	457	0	0	0	0	0	
14	0	0	0	0	457	0	0	0	0	0	
15	0	0	0	0	458	1	0	0	0	0	
0	0	0	0	0	458	1	0	0	0	0	
1	0	0	0	0	459	0	0	0	0	0	
2	0	0	0	0	459	1	0	0	0	0	
3	0	0	0	0	460	0	0	0	0	0	
4	0	0	0	0	460	1	0	0	0	0	
5	0	0	0	0	460	0	0	0	0	0	
6	0	0	0	0	461	0	0	0	0	0	
7	0	0	0	0	462	1	0	0	0	0	
8	0	0	0	0	462	1	0	0	0	0	
9	0	0	0	0	463	0	0	0	0	0	
10	0	0	0	0	463	1	0	0	0	0	
11	0	0	0	0	463	1	0	0	0	0	
12	0	0	0	0	464	0	0	0	0	0	
13	0	0	0	0	464	0	0	0	0	0	
14	0	0	0	0	465	1	0	0	0	0	
15	0	0	0	0	465	0	0	0	0	0	
0	0	0	0	0	466	1	0	0	0	0	
1	0	0	0	0	467	1	0	0	0	0	
2	0	0	0	0	467	1	0	0	0	0	
3	0	0	0	0	467	1	0	0	0	0	
4	0	0	0	0	468	1	0	0	0	0	
5	0	0	0	0	468	0	0	0	0	0	
6	0	0	0	0	469	1	0	0	0	0	
7	0	0	0	0	469	1	0	0	0	0	
8	0	0	0	0	470	1	0	0	0	0	
9	0	0	0	0	470	0	0	0	0	0	
10	0	0	0	0	471	1	0	0	0	0	
11	0	0	0	0	471	1	0	0	0	0	
12	0	0	0	0	472	0	0	0	0	0	
13	0	0	0	0	472	0	0	0	0	0	
14	0	0	0	0	472	1	0	0	0	0	
15	0	0	0	0	473	1	0	0	0	0	
0	0	0	0	0	473	1	0	0	0	0	
1	0	0	0	0	474	1	0	0	0	0	
2	0	0	0	0	475	1	0	0	0	0	
3	0	0	0	0	475	0	0	0	0	0	
4	0	0	0	0	476	1	0	0	0	0	
5	0	0	0	0	476	1	0	0	0	0	
6	0	0	0	0	477	1	0	0	0	0	
7	0	0	0	0	477	1	0	0	0	0	
8	0	0	0	0	478	1	0	0	0	0	
9	0	0	0	0	478	1	0	0	0	0	
10	0	0	0	0	479	1	0	0	0	0	
11	0	0	0	0	479	0	0	0	0	0	
12	0	0	0	0	480	1	0	0	0	0	
13	0	0	0	0	480	1	0	0	0	0	
14	0	0	0	0	480	1	0	0	0	0	
15	0	0	0	0	481	1	0	0	0	0	
0	0	0	0	0	481	1	0	0	0	0	
1	0	0	0	0	482	1	0	0	0	0	
2	0	0	0	0	483	1	0	0	0	0	
3	0	0	0	0	483	0	0	0	0	0	
4	0	0	0	0	484	1	0	0	0	0	
5	0	0	0	0	484	1	0	0	0	0	
6	0	0	0	0	486	1	0	0	0	0	
7	0	0	0	0	486	1	0	0	0	0	
8	0	0	0	0	486	1	0	0	0	0	
9	0	0	0	0	487	1	0	0	0	0	
10	0	0	0	0	487	0	0	0	0	0	
11	0	0	0	0	488	1	0	0	0	0	
12	0	0	0	0	489	1	0	0	0	0	
13	0	0	0	0	489	1	0	0	0	0	
14	0	0	0	0	489	1	0	0	0	0	
15	0	0	0	0	491	1	0	0	0	0	
0	0	0	0	0	491	1	0	0	0	0	
1	0	0	0	0	492	1	0	0	0	0	
2	0	0	0	0	492	0	0	0	0	0	
3	0	0	0	0	493	1	0	0	0	0	
4	0	0	0	0	493	1	0	0	0	0	
5	0	0	0	0	494	1	0	0	0	0	
6	0	0	0	0	495	1	0	0	0	0	
7	0	0	0	0	495	1	0	0	0	0	
8	0	0	0	0	496	1	0	0	0	0	
9	0	0	0	0	497	1	0	0	0	0	
10	0	0	0	0	497	0	0	0	0	0	
11	0	0	0	0	498	1	0	0	0	0	
12	0	0	0	0	499	1	0	0	0	0	
13	0	0	0	0	499	1	0	0	0	0	
14	0	0	0	0	500	1	0	0	0	0	
15	0	0	0	0	502	1	0	0	0	0	
0	0	0	0	0	502	1	0	0	0	0	
1	0	0	0	0	503	1	0	0	0	0	
2	0	0	0	0	503	1	0	0	0	0	
3	0	0	0	0	504	1	0	0	0	0	
4	0	0	0	0	505	1	0	0	0	0	
5	0	0	0	0	505	1	0	0	0	0	
6	0	0	0	0	506	1	0	0	0	0	
7	0	0	0	0	507	1	0	0	0	0	
8	0	0	0	0	507	1	0	0	0	0	
9	0	0	0	0	509	1	0	0	0	0	
10	0	0	0	0	509	1	0	0	0	0	
11	0	0	0	0	510	1	0	0	0	0	
12	0	0	0	0	511	1	0	0	0	0	
13	0	0	0	0	511	1	0	0	0	0	
14	0	0	0	0	513	1	0	0	0	0	
15	0	0	0	0	513	1	0	0	0	0	
0	0	0	0	0	514	1	0	0	0	0	
1	0	0	0	0	515	1	0	0	0	0	
2	0	0	0	0	516	0	0	0	0	0	
3	0	0	0	0	517	1	0	0	0	0	
4	0	0	0	0	518	1	0	0	0	0	
5	0	0	0	0	518	1	0	0	0	0	
6	0	0	0	0	519	1	0	0	0	0	
7	0	0	0	0	519	1	0	0	0	0	
8	0	0	0	0	521	1	0	0	0	0	
9	0	0	0	0	522	1	0	0	0	0	
10	0	0	0	0	522	0	0	0	0	0	
11	0	0	0	0	524	1	0	0	0	0	
12	0	0	0	0	524	1	0	0	0	0	
13	0	0	0	0	525	1	0	0	0	0	
14	0	0	0	0	526	1	0	0	0	0	
15	0	0	0	0	527	1	0	0	0	0	
0	0	0	0	0	527	1	0	0	0	0	
1	0	0	0	0	528	1	0	0	0	0	
2	0	0	0	0	529	0	0	0	0	0	
3	0	0	0	0	531	1	0	0	0	0	
4	0	0	0	0	531	1	0	0	0	0	
5	0	0	0	0	532	1	0	0	0	0	
6	0	0	0	0	532	1	0	0	0	0	
7	0	0	0	0	534	1	0	0	0	0	
8	0	0	0	0	534	1	0	0	0	0	
9	0	0	0	0	535	1	0	0	0	0	
10	0	0	0	0	536	1	0	0	0	0	
11	0	0	0	0	536	1	0	0	0	0	
12	0	0	0	0	538	1	0	0	0	0	
13	0	0	0	0	538	1	0	0	0	0	
14	0	0	0	0	539	1	0	0	0	0	
15	0	0	0	0	540	1	0	0	0	0	
0	0	0	0	0	540	1	0	0	0	0	
1	0	0	0	0	542	1	0	0	0	0	
2	0	0	0	0	542	1	0	0	0	0	
3	0	0	0	0	543	1	0	0	0	0	
4	0	0	0	0	544	1	0	0	0	0	
5	0	0	0	0	545	1	0	0	0	0	
6	0	0	0	0	546	1	0	0	0	0	
7	0	0	0	0	546	1	0	0	0	0	
8	0	0	0	0	547	1	0	0	0	0	
9	0	0	0	0	548	1	0	0	0	0	
10	0	0	0	0	548	1	0	0	0	0	
11	0	0	0	0	550	1	0	0	0	0	
12	0	0	0	0	550	1	0	0	0	0	
13	0	0	0	0	551	0	0	0	0	0	
14	0	0	0	0	551	1	0	0	0	0	
15	0	0	0	0	552	1	0	0	0	0	
0	0	0	0	0	553	1	0	0	0	0	
1	0	0	0	0	553	1	0	0	0	0	
2	0	0	0	0	554	1	0	0	0	0	
3	0	0	0	0	555	1	0	0	0	0	
4	0	0	0	0	555	1	0	0	0	0	
5	0	0	0	0	556	0	0	0	0	0	
6	0	0	0	0	557	1	0	0	0	0	
7	0	0	0	0	558	1	0	0	0	0	
8	0	0	0	0	558	1	0	0	0	0	
9	0	0	0	0	559	1	0	0	0	0	
10	0	0	0	0	560	1	0	0	0	0	
11	0	0	0	0	560	1	0	0	0	0	
12	0	0	0	0	561	1	0	0	0	0	
13	0	0	0	0	562	0	0	0	0	0	
14	0	0	0	0	562	1	0	0	0	0	
15	0	0	0	0	563	1	0	0	0	0	
0	0	0	0	0	564	1	0	0	0	0	
1	0	0	0	0	564	1	0	0	0	0	
2	0	0	0	0	565	1	0	0	0	0	
3	0	0	0	0	566	1	0	0	0	0	
4	0	0	0	0	566	1	0	0	0	0	
5	0	0	0	0	567	1	0	0	0	0	
6	0	0	0	0	568	1	0	0	0	0	
7	0	0	0	0	568	1	0	0	0	0	
8	0	0	0	0	568	1	0	0	0	0	
9	0	0	0	0	569	1	0	0	0	0	
10	0	0	0	0	569	1	0	0	0	0	
11	0	0	0	0	570	1	0	0	0	0	
12	0	0	0	0	571	1	0	0	0	0	
13	0	0	0	0	571	1	0	0	0	0	
14	0	0	0	0	572	1	0	0	0	0	
15	0	0	0	0	573	1	0	0	0	0	
0	0	0	0	0	574	2	0	0	0	0	
1	0	0	0	0	574	1	0	0	0	0	
2	0	0	0	0	575	1	0	0	0	0	
3	0	0	0	0	575	1	0	0	0	0	
4	0	0	0	0	576	1	0	0	0	0	
5	0	0	0	0	576	1	0	0	0	0	
6	0	0	0	0	577	1	0	0	0	0	
7	0	0	0	0	577	1	0	0	0	0	
8	0	0	0	0	578	1	0	0	0	0	
9	0	0	0	0	578	1	0	0	0	0	
10	0	0	0	0	579	1	0	0	0	0	
11	0	0	0	0	579	1	0	0	0	0	
12	0	0	0	0	580	1	0	0	0	0	
13	0	0	0	0	580	1	0	0	0	0	
14	0	0	0	0	581	1	0	0	0	0	
15	0	0	0	0	582	1	0	0	0	0	
0	0	0	0	0	582	1	0	0	0	0	
1	0	0	0	0	583	1	0	0	0	0	
2	0	0	0	0	583	1	0	0	0	0	
3	0	0	0	0	584	1	0	0	0	0	
4	0	0	0	0	585	1	0	0	0	0	
5	0	0	0	0	585	1	0	0	0	0	
6	0	0	0	0	586	1	0	0	0	0	
7	0	0	0	0	587	1	0	0	0	0	
8	0	0	0	0	587	1	0	0	0	0	
9	0	0	0	0	587	1	0	0	0	0	
10	0	0	0	0	588	1	0	0	0	0	
11	0	0	0	0	588	1	0	0	0	0	
12	0	0	0	0	589	1	0	0	0	0	
13	0	0	0	0	590	1	0	0	0	0	
14	0	0	0	0	590	1	0	0	0	0	
15	0	0	0	0	590	1	0	0	0	0	
0	0	0	0	0	591	2	0	0	0	0	
1	0	0	0	0	592	1	0	0	0	0	
2	0	0	0	0	592	1	0	0	0	0	
3	0	0	0	0	592	1	0	0	0	0	
4	0	0	0	0	593	1	0	0	0	0	
5	0	0	0	0	593	1	0	0	0	0	
6	0	0	0	0	594	1	0	0	0	0	
7	0	0	0	0	595	1	0	0	0	0	
8	0	0	0	0	595	2	0	0	0	0	
9	0	0	0	0	596	1	0	0	0	0	
10	0	0	0	0	596	1	0	0	0	0	
11	0	0	0	0	597	1	0	0	0	0	
12	0	0	0	0	597	1	0	0	0	0	
13	0	0	0	0	598	1	0	0	0	0	
14	0	0	0	0	599	1	0	0	0	0	
15	0	0	0	0	599	1	0	0	0	0	
0	0	0	0	0	600	2	0	0	0	0	
1	0	0	0	0	600	1	0	0	0	0	
2	0	0	0	0	600	1	0	0	0	0	
3	0	0	0	0	601	1	0	0	0	0	
4	0	0	0	0	601	1	0	0	0	0	
5	0	0	0	0	602	1	0	0	0	0	
6	0	0	0	0	602	1	0	0	0	0	
7	0	0	0	0	603	1	0	0	0	0	
8	0	0	0	0	604	2	0	0	0	0	
9	0	0	0	0	604	1	0	0	0	0	
10	0	0	0	0	604	1	0	0	0	0	
11	0	0	0	0	605	1	0	0	0	0	
12	0	0	0	0	605	1	0	0	0	0	
13	0	0	0	0	606	1	0	0	0	0	
14	0	0	0	0	607	1	0	0	0	0	
15	0	0	0	0	607	1	0	0	0	0	
0	0	0	0	0	607	2	0	0	0	0	
1	0	0	0	0	608	1	0	0	0	0	
2	0	0	0	0	608	1	0	0	0	0	
3	0	0	0	0	608	1	0	0	0	0	
4	0	0	0	0	609	1	0	0	0	0	
5	0	0	0	0	610	1	0	0	0	0	
6	0	0	0	0	610	1	0	0	0	0	
7	0	0	0	0	611	1	0	0	0	0	
8	0	0	0	0	611	2	0	0	0	0	
9	0	0	0	0	612	1	0	0	0	0	
10	0	0	0	0	612	1	0	0	0	0	
11	0	0	0	0	612	1	0	0	0	0	
12	0	0	0	0	613	1	0	0	0	0	
13	0	0	0	0	614	1	0	0	0	0	
14	0	0	0	0	615	1	0	0	0	0	
15	0	0	0	0	615	1	0	0	0	0	
0	0	0	0	0	615	2	0	0	0	0	
1	0	0	0	0	616	1	0	0	0	0	
2	0	0	0	0	616	1	0	0	0	0	
3	0	0	0	0	617	1	0	0	0	0	
4	0	0	0	0	617	1	0	0	0	0	
5	0	0	0	0	618	1	0	0	0	0	
6	0	0	0	0	619	1	0	0	0	0	
7	0	0	0	0	619	1	0	0	0	0	
8	0	0	0	0	620	2	0	0	0	0	
9	0	0	0	0	620	1	0	0	0	0	
10	0	0	0	0	621	1	0	0	0	0	
11	0	0	0	0	621	1	0	0	0	0	
12	0	0	0	0	622	1	0	0	0	0	
13	0	0	0	0	622	1	0	0	0	0	
14	0	0	0	0	623	1	0	0	0	0	
15	0	0	0	0	623	1	0	0	0	0	
0	0	0	0	0	624	2	0	0	0	0	
1	0	0	0	0	624	1	0	0	0	0	
2	0	0	0	0	625	0	0	0	0	0	
3	0	0	0	0	626	1	0	0	0	0	
4	0	0	0	0	626	1	0	0	0	0	
5	0	0	0	0	627	1	0	0	0	0	
6	0	0	0	0	627	1	0	0	0	0	
7	0	0	0	0	628	1	0	0	0	0	
8	0	0	0	0	628	2	0	0	0	0	
9	0	0	0	0	629	1	0	0	0	0	
10	0	0	0	0	629	1	0	0	0	0	
11	0	0	0	0	630	1	0	0	0	0	
12	0	0	0	0	631	1	0	0	0	0	
13	0	0	0	0	631	1	0	0	0	0	
14	0	0	0	0	631	1	0	0	0	0	
15	0	0	0	0	632	1	0	0	0	0	
0	0	0	0	0	632	2	0	0	0	0	
1	0	0	0	0	633	1	0	0	0	0	
2	0	0	0	0	633	1	0	0	0	0	
3	0	0	0	0	634	1	0	0	0	0	
4	0	0	0	0	635	1	0	0	0	0	
5	0	0	0	0	635	1	0	0	0	0	
6	0	0	0	0	636	1	0	0	0	0	
7	0	0	0	0	636	1	0	0	0	0	
8	0	0	0	0	637	2	0	0	0	0	
9	0	0	0	0	637	2	0	0	0	0	
10	0	0	0	0	638	1	0	0	0	0	
11	0	0	0	0	638	1	0	0	0	0	
12	0	0	0	0	639	1	0	0	0	0	
13	0	0	0	0	639	1	0	0	0	0	
14	0	0	0	0	640	2	0	0	0	0	
15	0	0	0	0	639	1	0	0	0	0	
0	0	0	0	0	640	2	0	0	0	0	
1	0	0	0	0	641	1	0	0	0	0	
2	0	0	0	0	641	1	0	0	0	0	
3	0	0	0	0	642	2	0	0	0	0	
4	0	0	0	0	642	2	0	0	0	0	
5	0	0	0	0	643	1	0	0	0	0	
6	0	0	0	0	643	2	0	0	0	0	
7	0	0	0	0	644	2	0	0	0	0	
8	0	0	0	0	644	2	0	0	0	0	
9	0	0	0	0	645	1	0	0	0	0	
10	0	0	0	0	646	2	0	0	0	0	
11	0	0	0	0	646	1	0	0	0	0	
12	0	0	0	0	647	1	0	0	0	0	
13	0	0	0	0	647	2	0	0	0	0	
14	0	0	0	0	647	2	0	0	0	0	
15	0	0	0	0	648	2	0	0	0	0	
0	0	0	0	0	648	2	0	0	0	0	
1	0	0	0	0	649	1	0	0	0	0	
2	0	0	0	0	649	1	0	0	0	0	
3	0	0	0	0	650	2	0	0	0	0	
4	0	0	0	0	650	1	0	0	0	0	
5	0	0	0	0	651	2	0	0	0	0	
6	0	0	0	0	651	2	0	0	0	0	
7	0	0	0	0	652	2	0	0	0	0	
8	0	0	0	0	652	2	0	0	0	0	
9	0	0	0	0	653	2	0	0	0	0	
10	0	0	0	0	653	1	0	0	0	0	
11	0	0	0	0	653	2	0	0	0	0	
12	0	0	0	0	654	2	0	0	0	0	
13	0	0	0	0	655	2	0	0	0	0	
14	0	0	0	0	655	2	0	0	0	0	
15	0	0	0	0	655	2	0	0	0	0	
0	0	0	0	0	656	2	0	0	0	0	
1	0	0	0	0	656	2	0	0	0	0	
2	0	0	0	0	656	2	0	0	0	0	
3	0	0	0	0	657	1	0	0	0	0	
4	0	0	0	0	658	2	0	0	0	0	
5	0	0	0	0	658	2	0	0	0	0	
6	0	0	0	0	659	2	0	0	0	0	
7	0	0	0	0	659	2	0	0	0	0	
8	0	0	0	0	659	2	0	0	0	0	
9	0	0	0	0	660	2	0	0	0	0	
10	0	0	0	0	660	2	0	0	0	0	
11	0	0	0	0	660	1	0	0	0	0	
12	0	0	0	0	661	2	0	0	0	0	
13	0	0	0	0	662	2	0	0	0	0	
14	0	0	0	0	662	2	0	0	0	0	
15	0	0	0	0	662	2	0	0	0	0	
0	0	0	0	0	663	2	0	0	0	0	
1	0	0	0	0	663	2	0	0	0	0	
2	0	0	0	0	664	2	0	0	0	0	
3	0	0	0	0	664	1	0	0	0	0	
4	0	0	0	0	665	2	0	0	0	0	
5	0	0	0	0	665	2	0	0	0	0	
6	0	0	0	0	665	2	0	0	0	0	
7	0	0	0	0	666	2	0	0	0	0	
8	0	0	0	0	666	2	0	0	0	0	
9	0	0	0	0	667	2	0	0	0	0	
10	0	0	0	0	667	2	0	0	0	0	
11	0	0	0	0	668	2	0	0	0	0	
12	0	0	0	0	668	2	0	0	0	0	
13	0	0	0	0	669	1	0	0	0	0	
14	0	0	0	0	669	2	0	0	0	0	
15	0	0	0	0	670	2	0	0	0	0	
0	0	0	0	0	670	2	0	0	0	0	
1	0	0	0	0	670	2	0	0	0	0	
2	0	0	0	0	670	2	0	0	0	0	
3	0	0	0	0	671	2	0	0	0	0	
4	0	0	0	0	671	2	0	0	0	0	
5	0	0	0	0	672	1	0	0	0	0	
6	0	0	0	0	673	2	0	0	0	0	
7	0	0	0	0	673	2	0	0	0	0	
8	0	0	0	0	673	2	0	0	0	0	
9	0	0	0	0	674	2	0	0	0	0	
10	0	0	0	0	674	2	0	0	0	0	
11	0	0	0	0	675	2	0	0	0	0	
12	0	0	0	0	675	2	0	0	0	0	
13	0	0	0	0	675	2	0	0	0	0	
14	0	0	0	0	676	2	0	0	0	0	
15	0	0	0	0	676	2	0	0	0	0	
0	0	0	0	0	677	2	0	0	0	0	
1	0	0	0	0	678	2	0	0	0	0	
2	0	0	0	0	678	2	0	0	0	0	
3	0	0	0	0	679	2	0	0	0	0	
4	0	0	0	0	679	2	0	0	0	0	
5	0	0	0	0	679	2	0	0	0	0	
6	0	0	0	0	680	2	0	0	0	0	
7	0	0	0	0	680	2	0	0	0	0	
8	0	0	0	0	681	2	0	0	0	0	
9	0	0	0	0	681	2	0	0	0	0	
10	0	0	0	0	682	2	0	0	0	0	
11	0	0	0	0	682	2	0	0	0	0	
12	0	0	0	0	683	2	0	0	0	0	
13	0	0	0	0	683	2	0	0	0	0	
14	0	0	0	0	684	2	0	0	0	0	
15	0	0	0	0	685	2	0	0	0	0	
0	0	0	0	0	685	2	0	0	0	0	
1	0	0	0	0	685	2	0	0	0	0	
2	0	0	0	0	686	2	0	0	0	0	
3	0	0	0	0	686	2	0	0	0	0	
4	0	0	0	0	687	2	0	0	0	0	
5	0	0	0	0	687	2	0	0	0	0	
6	0	0	0	0	688	2	0	0	0	0	
7	0	0	0	0	688	2	0	0	0	0	
8	0	0	0	0	688	2	0	0	0	0	
9	0	0	0	0	689	2	0	0	0	0	
10	0	0	0	0	689	2	0	0	0	0	
11	0	0	0	0	690	2	0	0	0	0	
12	0	0	0	0	691	2	0	0	0	0	
13	0	0	0	0	691	2	0	0	0	0	
14	0	0	0	0	692	2	0	0	0	0	
15	0	0	0	0	692	2	0	0	0	0	
0	0	0	0	0	693	2	0	0	0	0	
1	0	0	0	0	693	2	0	0	0	0	
2	0	0	0	0	694	2	0	0	0	0	
3	0	0	0	0	694	2	0	0	0	0	
4	0	0	0	0	695	2	0	0	0	0	
5	0	0	0	0	695	2	0	0	0	0	
6	0	0	0	0	696	2	0	0	0	0	
7	0	0	0	0	696	2	0	0	0	0	
8	0	0	0	0	697	2	0	0	0	0	
9	0	0	0	0	697	2	0	0	0	0	
10	0	0	0	0	697	2	0	0	0	0	
11	0	0	0	0	698	2	0	0	0	0	
12	0	0	0	0	699	2	0	0	0	0	
13	0	0	0	0	699	2	0	0	0	0	
14	0	0	0	0	700	2	0	0	0	0	
15	0	0	0	0	700	2	0	0	0	0	
0	0	0	0	0	700	2	0	0	0	0	
1	0	0	0	0	701	2	0	0	0	0	
2	0	0	0	0	702	2	0	0	0	0	
3	0	0	0	0	702	2	0	0	0	0	
4	0	0	0	0	702	2	0	0	0	0	
5	0	0	0	0	703	2	0	0	0	0	
6	0	0	0	0	704	2	0	0	0	0	
7	0	0	0	0	704	2	0	0	0	0	
8	0	0	0	0	704	3	0	0	0	0	
9	0	0	0	0	705	2	0	0	0	0	
10	0	0	0	0	705	2	0	0	0	0	
11	0	0	0	0	706	2	0	0	0	0	
12	0	0	0	0	707	2	0	0	0	0	
13	0	0	0	0	707	2	0	0	0	0	
14	0	0	0	0	707	2	0	0	0	0	
15	0	0	0	0	708	2	0	0	0	0	
0	0	0	0	0	708	3	0	0	0	0	
1	0	0	0	0	709	2	0	0	0	0	
2	0	0	0	0	709	2	0	0	0	0	
3	0	0	0	0	710	2	0	0	0	0	
4	0	0	0	0	710	2	0	0	0	0	
5	0	0	0	0	711	1	0	0	0	0	
6	0	0	0	0	711	2	0	0	0	0	
7	0	0	0	0	711	2	0	0	0	0	
8	0	0	0	0	712	2	0	0	0	0	
9	0	0	0	0	713	2	0	0	0	0	
10	0	0	0	0	713	2	0	0	0	0	
11	0	0	0	0	714	2	0	0	0	0	
12	0	0	0	0	714	2	0	0	0	0	
13	0	0	0	0	715	1	0	0	0	0	
14	0	0	0	0	715	2	0	0	0	0	
15	0	0	0	0	715	2	0	0	0	0	
0	0	0	0	0	716	3	0	0	0	0	
1	0	0	0	0	716	2	0	0	0	0	
2	0	0	0	0	716	2	0	0	0	0	
3	0	0	0	0	717	2	0	0	0	0	
4	0	0	0	0	717	2	0	0	0	0	
5	0	0	0	0	718	2	0	0	0	0	
6	0	0	0	0	718	2	0	0	0	0	
7	0	0	0	0	719	2	0	0	0	0	
8	0	0	0	0	719	3	0	0	0	0	
9	0	0	0	0	719	2	0	0	0	0	
10	0	0	0	0	720	2	0	0	0	0	
11	0	0	0	0	720	2	0	0	0	0	
12	0	0	0	0	721	2	0	0	0	0	
13	0	0	0	0	721	2	0	0	0	0	
14	0	0	0	0	722	2	0	0	0	0	
15	0	0	0	0	722	2	0	0	0	0	
0	0	0	0	0	722	3	0	0	0	0	
1	0	0	0	0	723	2	0	0	0	0	
2	0	0	0	0	723	2	0	0	0	0	
3	0	0	0	0	724	2	0	0	0	0	
4	0	0	0	0	724	2	0	0	0	0	
5	0	0	0	0	724	2	0	0	0	0	
6	0	0	0	0	725	2	0	0	0	0	
7	0	0	0	0	725	2	0	0	0	0	
8	0	0	0	0	725	3	0	0	0	0	
9	0	0	0	0	726	2	0	0	0	0	
10	0	0	0	0	726	1	0	0	0	0	
11	0	0	0	0	727	2	0	0	0	0	
12	0	0	0	0	727	2	0	0	0	0	
13	0	0	0	0	728	2	0	0	0	0	
14	0	0	0	0	728	2	0	0	0	0	
15	0	0	0	0	728	2	0	0	0	0	
0	0	0	0	0	729	3	0	0	0	0	
1	0	0	0	0	729	2	0	0	0	0	
2	0	0	0	0	730	1	0	0	0	0	
3	0	0	0	0	730	2	0	0	0	0	
4	0	0	0	0	731	2	0	0	0	0	
5	0	0	0	0	731	2	0	0	0	0	
6	0	0	0	0	732	2	0	0	0	0	
7	0	0	0	0	731	2	0	0	0	0	
8	0	0	0	0	732	3	0	0	0	0	
9	0	0	0	0	732	2	0	0	0	0	
10	0	0	0	0	732	1	0	0	0	0	
11	0	0	0	0	733	2	0	0	0	0	
12	0	0	0	0	733	2	0	0	0	0	
13	0	0	0	0	734	2	0	0	0	0	
14	0	0	0	0	734	2	0	0	0	0	
15	0	0	0	0	734	2	0	0	0	0	
0	0	0	0	0	735	3	0	0	0	0	
1	0	0	0	0	735	2	0	0	0	0	
2	0	0	0	0	736	2	0	0	0	0	
3	0	0	0	0	736	2	0	0	0	0	
4	0	0	0	0	736	2	0	0	0	0	
5	0	0	0	0	737	2	0	0	0	0	
6	0	0	0	0	737	2	0	0	0	0	
7	0	0	0	0	738	2	0	0	0	0	
8	0	0	0	0	738	2	0	0	0	0	
9	0	0	0	0	738	2	0	0	0	0	
10	0	0	0	0	739	2	0	0	0	0	
11	0	0	0	0	739	2	0	0	0	0	
12	0	0	0	0	739	2	0	0	0	0	
13	0	0	0	0	740	2	0	0	0	0	
14	0	0	0	0	740	2	0	0	0	0	
15	0	0	0	0	740	2	0	0	0	0	
0	0	0	0	0	740	2	0	0	0	0	
1	0	0	0	0	741	2	0	0	0	0	
2	0	0	0	0	742	2	0	0	0	0	
3	0	0	0	0	742	2	0	0	0	0	
4	0	0	0	0	743	2	0	0	0	0	
5	0	0	0	0	743	2	0	0	0	0	
6	0	0	0	0	743	2	0	0	0	0	
7	0	0	0	0	743	2	0	0	0	0	
8	0	0	0	0	744	3	0	0	0	0	
9	0	0	0	0	744	2	0	0	0	0	
10	0	0	0	0	745	1	0	0	0	0	
11	0	0	0	0	746	2	0	0	0	0	
12	0	0	0	0	745	2	0	0	0	0	
13	0	0	0	0	745	2	0	0	0	0	
14	0	0	0	0	746	2	0	0	0	0	
15	0	0	0	0	747	2	0	0	0	0	
0	0	0	0	0	747	3	0	0	0	0	
1	0	0	0	0	747	2	0	0	0	0	
2	0	0	0	0	748	1	0	0	0	0	
3	0	0	0	0	748	2	0	0	0	0	
4	0	0	0	0	748	2	0	0	0	0	
5	0	0	0	0	749	2	0	0	0	0	
6	0	0	0	0	749	2	0	0	0	0	
7	0	0	0	0	750	2	0	0	0	0	
8	0	0	0	0	750	3	0	0	0	0	
9	0	0	0	0	751	2	0	0	0	0	
10	0	0	0	0	751	1	0	0	0	0	
11	0	0	0	0	751	2	0	0	0	0	
12	0	0	0	0	752	2	0	0	0	0	
13	0	0	0	0	752	2	0	0	0	0	
14	0	0	0	0	752	2	0	0	0	0	
15	0	0	0	0	753	2	0	0	0	0	
0	0	0	0	0	753	3	0	0	0	0	
1	0	0	0	0	754	2	0	0	0	0	
2	0	0	0	0	754	2	0	0	0	0	
3	0	0	0	0	754	2	0	0	0	0	
4	0	0	0	0	755	2	0	0	0	0	
5	0	0	0	0	755	2	0	0	0	0	
6	0	0	0	0	755	2	0	0	0	0	
7	0	0	0	0	756	2	0	0	0	0	
8	0	0	0	0	756	3	0	0	0	0	
9	0	0	0	0	757	2	0	0	0	0	
10	0	0	0	0	757	2	0	0	0	0	
11	0	0	0	0	758	2	0	0	0	0	
12	0	0	0	0	758	2	0	0	0	0	
13	0	0	0	0	758	2	0	0	0	0	
14	0	0	0	0	760	2	0	0	0	0	
15	0	0	0	0	759	2	0	0	0	0	
0	0	0	0	0	760	3	0	0	0	0	
1	0	0	0	0	760	2	0	0	0	0	
2	0	0	0	0	760	3	0	0	0	0	
3	0	0	0	0	761	3	0	0	0	0	
4	0	0	0	0	761	2	0	0	0	0	
5	0	0	0	0	761	2	0	0	0	0	
6	0	0	0	0	762	2	0	0	0	0	
7	0	0	0	0	763	2	0	0	0	0	
8	0	0	0	0	763	3	0	0	0	0	
9	0	0	0	0	763	2	0	0	0	0	
10	0	0	0	0	764	2	0	0	0	0	
11	0	0	0	0	764	3	0	0	0	0	
12	0	0	0	0	765	2	0	0	0	0	
13	0	0	0	0	765	2	0	0	0	0	
14	0	0	0	0	766	3	0	0	0	0	
15	0	0	0	0	766	2	0	0	0	0	
0	0	0	0	0	767	3	0	0	0	0	
1	0	0	0	0	767	3	0	0	0	0	
2	0	0	0	0	768	2	0	0	0	0	
3	0	0	0	0	768	3	0	0	0	0	
4	0	0	0	0	768	3	0	0	0	0	
5	0	0	0	0	769	2	0	0	0	0	
6	0	0	0	0	769	2	0	0	0	0	
7	0	0	0	0	769	3	0	0	0	0	
8	0	0	0	0	770	3	0	0	0	0	
9	0	0	0	0	770	2	0	0	0	0	
10	0	0	0	0	771	3	0	0	0	0	
11	0	0	0	0	771	3	0	0	0	0	
12	0	0	0	0	771	3	0	0	0	0	
13	0	0	0	0	772	3	0	0	0	0	
14	0	0	0	0	772	2	0	0	0	0	
15	0	0	0	0	772	3	0	0	0	0	
0	0	0	0	0	772	3	0	0	0	0	
1	0	0	0	0	773	3	0	0	0	0	
2	0	0	0	0	774	3	0	0	0	0	
3	0	0	0	0	774	3	0	0	0	0	
4	0	0	0	0	775	3	0	0	0	0	
5	0	0	0	0	775	2	0	0	0	0	
6	0	0	0	0	775	2	0	0	0	0	
7	0	0	0	0	776	3	0	0	0	0	
8	0	0	0	0	776	3	0	0	0	0	
9	0	0	0	0	777	3	0	0	0	0	
10	0	0	0	0	777	3	0	0	0	0	
11	0	0	0	0	777	3	0	0	0	0	
12	0	0	0	0	778	3	0	0	0	0	
13	0	0	0	0	778	3	0	0	0	0	
14	0	0	0	0	778	3	0	0	0	0	
15	0	0	0	0	778	3	0	0	0	0	
0	0	0	0	0	779	3	0	0	0	0	
1	0	0	0	0	779	3	0	0	0	0	
2	0	0	0	0	780	3	0	0	0	0	
3	0	0	0	0	780	3	0	0	0	0	
4	0	0	0	0	780	3	0	0	0	0	
5	0	0	0	0	781	3	0	0	0	0	
6	0	0	0	0	781	3	0	0	0	0	
7	0	0	0	0	782	3	0	0	0	0	
8	0	0	0	0	782	3	0	0	0	0	
9	0	0	0	0	782	3	0	0	0	0	
10	0	0	0	0	783	3	0	0	0	0	
11	0	0	0	0	783	3	0	0	0	0	
12	0	0	0	0	783	3	0	0	0	0	
13	0	0	0	0	784	3	0	0	0	0	
14	0	0	0	0	784	3	0	0	0	0	
15	0	0	0	0	785	3	0	0	0	0	
0	0	0	0	0	785	3	0	0	0	0	
1	0	0	0	0	785	3	0	0	0	0	
2	0	0	0	0	785	3	0	0	0	0	
3	0	0	0	0	785	3	0	0	0	0	
4	0	0	0	0	787	3	0	0	0	0	
5	0	0	0	0	787	3	0	0	0	0	
6	0	0	0	0	787	3	0	0	0	0	
7	0	0	0	0	787	3	0	0	0	0	
8	0	0	0	0	787	3	0	0	0	0	
9	0	0	0	0	788	3	0	0	0	0	
10	0	0	0	0	788	3	0	0	0	0	
11	0	0	0	0	788	3	0	0	0	0	
12	0	0	0	0	789	3	0	0	0	0	
13	0	0	0	0	789	3	0	0	0	0	
14	0	0	0	0	790	3	0	0	0	0	
15	0	0	0	0	790	3	0	0	0	0	
0	0	0	0	0	791	3	0	0	0	0	
1	0	0	0	0	791	3	0	0	0	0	
2	0	0	0	0	791	3	0	0	0	0	
3	0	0	0	0	792	3	0	0	0	0	
4	0	0	0	0	792	3	0	0	0	0	
5	0	0	0	0	792	3	0	0	0	0	
6	0	0	0	0	793	3	0	0	0	0	
7	0	0	0	0	793	3	0	0	0	0	
8	0	0	0	0	793	3	0	0	0	0	
9	0	0	0	0	793	3	0	0	0	0	
10	0	0	0	0	794	3	0	0	0	0	
11	0	0	0	0	794	3	0	0	0	0	
12	0	0	0	0	795	3	0	0	0	0	
13	0	0	0	0	796	2	0	0	0	0	
14	0	0	0	0	796	3	0	0	0	0	
15	0	0	0	0	796	3	0	0	0	0	
0	0	0	0	0	796	3	0	0	0	0	
1	0	0	0	0	797	3	0	0	0	0	
2	0	0	0	0	798	3	0	0	0	0	
3	0	0	0	0	797	3	0	0	0	0	
4	0	0	0	0	798	3	0	0	0	0	
5	0	0	0	0	799	2	0	0	0	0	
6	0	0	0	0	799	3	0	0	0	0	
7	0	0	0	0	799	3	0	0	0	0	
8	0	0	0	0	800	3	0	0	0	0	
9	0	0	0	0	800	3	0	0	0	0	
10	0	0	0	0	800	3	0	0	0	0	
11	0	0	0	0	801	3	0	0	0	0	
12	0	0	0	0	801	3	0	0	0	0	
13	0	0	0	0	802	2	0	0	0	0	
14	0	0	0	0	802	3	0	0	0	0	
15	0	0	0	0	803	3	0	0	0	0	
0	0	0	0	0	803	3	0	0	0	0	
1	0	0	0	0	803	3	0	0	0	0	
2	0	0	0	0	804	3	0	0	0	0	
3	0	0	0	0	804	3	0	0	0	0	
4	0	0	0	0	805	3	0	0	0	0	
5	0	0	0	0	805	3	0	0	0	0	
6	0	0	0	0	806	3	0	0	0	0	
7	0	0	0	0	806	3	0	0	0	0	
8	0	0	0	0	807	3	0	0	0	0	
9	0	0	0	0	807	3	0	0	0	0	
10	0	0	0	0	807	3	0	0	0	0	
11	0	0	0	0	808	3	0	0	0	0	
12	0	0	0	0	808	3	0	0	0	0	
13	0	0	0	0	808	3	0	0	0	0	
14	0	0	0	0	809	3	0	0	0	0	
15	0	0	0	0	809	3	0	0	0	0	
0	0	0	0	0	810	3	0	0	0	0	
1	0	0	0	0	810	3	0	0	0	0	
2	0	0	0	0	810	3	0	0	0	0	
3	0	0	0	0	811	3	0	0	0	0	
4	0	0	0	0	811	3	0	0	0	0	
5	0	0	0	0	812	3	0	0	0	0	
6	0	0	0	0	812	3	0	0	0	0	
7	0	0	0	0	812	3	0	0	0	0	
8	0	0	0	0	813	3	0	0	0	0	
9	0	0	0	0	813	3	0	0	0	0	
10	0	0	0	0	814	2	0	0	0	0	
11	0	0	0	0	814	3	0	0	0	0	
12	0	0	0	0	814	3	0	0	0	0	
13	0	0	0	0	815	3	0	0	0	0	
14	0	0	0	0	815	3	0	0	0	0	
15	0	0	0	0	816	3	0	0	0	0	
0	0	0	0	0	816	3	0	0	0	0	
1	0	0	0	0	816	3	0	0	0	0	
2	0	0	0	0	816	2	0	0	0	0	
3	0	0	0	0	816	3	0	0	0	0	
4	0	0	0	0	817	3	0	0	0	0	
5	0	0	0	0	817	3	0	0	0	0	
6	0	0	0	0	817	3	0	0	0	0	
7	0	0	0	0	818	3	0	0	0	0	
8	0	0	0	0	818	3	0	0	0	0	
9	0	0	0	0	819	3	0	0	0	0	
10	0	0	0	0	819	3	0	0	0	0	
11	0	0	0	0	819	3	0	0	0	0	
12	0	0	0	0	819	3	0	0	0	0	
13	0	0	0	0	820	3	0	0	0	0	
14	0	0	0	0	820	3	0	0	0	0	
15	0	0	0	0	821	3	0	0	0	0	
0	0	0	0	0	821	3	0	0	0	0	
1	0	0	0	0	822	3	0	0	0	0	
2	0	0	0	0	822	3	0	0	0	0	
3	0	0	0	0	822	3	0	0	0	0	
4	0	0	0	0	823	3	0	0	0	0	
5	0	0	0	0	823	3	0	0	0	0	
6	0	0	0	0	823	3	0	0	0	0	
7	0	0	0	0	824	3	0	0	0	0	
8	0	0	0	0	824	3	0	0	0	0	
9	0	0	0	0	824	3	0	0	0	0	
10	0	0	0	0	824	3	0	0	0	0	
11	0	0	0	0	825	3	0	0	0	0	
12	0	0	0	0	825	3	0	0	0	0	
13	0	0	0	0	825	3	0	0	0	0	
14	0	0	0	0	826	3	0	0	0	0	
15	0	0	0	0	826	3	0	0	0	0	
0	0	0	0	0	826	3	0	0	0	0	
1	0	0	0	0	827	3	0	0	0	0	
2	0	0	0	0	828	2	0	0	0	0	
3	0	0	0	0	828	3	0	0	0	0	
4	0	0	0	0	828	3	0	0	0	0	
5	0	0	0	0	828	3	0	0	0	0	
6	0	0	0	0	828	3	0	0	0	0	
7	0	0	0	0	830	3	0	0	0	0	
8	0	0	0	0	829	3	0	0	0	0	
9	0	0	0	0	830	3	0	0	0	0	
10	0	0	0	0	830	2	0	0	0	0	
11	0	0	0	0	830	3	0	0	0	0	
12	0	0	0	0	830	3	0	0	0	0	
13	0	0	0	0	830	3	0	0	0	0	
14	0	0	0	0	831	3	0	0	0	0	
15	0	0	0	0	831	3	0	0	0	0	
0	0	0	0	0	831	3	0	0	0	0	
1	0	0	0	0	832	3	0	0	0	0	
2	0	0	0	0	831	2	0	0	0	0	
3	0	0	0	0	832	3	0	0	0	0	
4	0	0	0	0	832	3	0	0	0	0	
5	0	0	0	0	832	3	0	0	0	0	
6	0	0	0	0	833	3	0	0	0	0	
7	0	0	0	0	833	3	0	0	0	0	
8	0	0	0	0	833	3	0	0	0	0	
9	0	0	0	0	833	3	0	0	0	0	
10	0	0	0	0	833	3	0	0	0	0	
11	0	0	0	0	834	3	0	0	0	0	
12	0	0	0	0	834	3	0	0	0	0	
13	0	0	0	0	834	3	0	0	0	0	
14	0	0	0	0	835	3	0	0	0	0	
15	0	0	0	0	835	3	0	0	0	0	
0	0	0	0	0	835	3	0	0	0	0	
1	0	0	0	0	835	3	0	0	0	0	
2	0	0	0	0	835	3	0	0	0	0	
3	0	0	0	0	835	3	0	0	0	0	
4	0	0	0	0	835	3	0	0	0	0	
5	0	0	0	0	836	3	0	0	0	0	
6	0	0	0	0	836	3	0	0	0	0	
7	0	0	0	0	836	3	0	0	0	0	
8	0	0	0	0	836	3	0	0	0	0	
9	0	0	0	0	836	3	0	0	0	0	
10	0	0	0	0	837	3	0	0	0	0	
11	0	0	0	0	837	3	0	0	0	0	
12	0	0	0	0	837	3	0	0	0	0	
13	0	0	0	0	837	2	0	0	0	0	
14	0	0	0	0	837	3	0	0	0	0	
15	0	0	0	0	838	3	0	0	0	0	
0	0	0	0	0	838	3	0	0	0	0	
1	0	0	0	0	838	3	0	0	0	0	
2	0	0	0	0	838	3	0	0	0	0	
3	0	0	0	0	838	3	0	0	0	0	
4	0	0	0	0	838	3	0	0	0	0	
5	0	0	0	0	838	2	0	0	0	0	
6	0	0	0	0	838	3	0	0	0	0	
7	0	0	0	0	838	3	0	0	0	0	
8	0	0	0	0	838	3	0	0	0	0	
9	0	0	0	0	839	3	0	0	0	0	
10	0	0	0	0	839	3	0	0	0	0	
11	0	0	0	0	839	3	0	0	0	0	
12	0	0	0	0	839	3	0	0	0	0	
13	0	0	0	0	839	2	0	0	0	0	
14	0	0	0	0	840	3	0	0	0	0	
15	0	0	0	0	839	3	0	0	0	0	
0	0	0	0	0	840	3	0	0	0	0	
1	0	0	0	0	840	3	0	0	0	0	
2	0	0	0	0	840	3	0	0	0	0	
3	0	0	0	0	841	3	0	0	0	0	
4	0	0	0	0	840	3	0	0	0	0	
5	0	0	0	0	841	3	0	0	0	0	
6	0	0	0	0	841	3	0	0	0	0	
7	0	0	0	0	841	3	0	0	0	0	
8	0	0	0	0	841	3	0	0	0	0	
9	0	0	0	0	841	3	0	0	0	0	
10	0	0	0	0	841	3	0	0	0	0	
11	0	0	0	0	841	3	0	0	0	0	
12	0	0	0	0	842	3	0	0	0	0	
13	0	0	0	0	842	3	0	0	0	0	
14	0	0	0	0	842	3	0	0	0	0	
15	0	0	0	0	842	3	0	0	0	0	
0	0	0	0	0	843	3	0	0	0	0	
1	0	0	0	0	843	3	0	0	0	0	
2	0	0	0	0	843	3	0	0	0	0	
3	0	0	0	0	844	3	0	0	0	0	
4	0	0	0	0	844	3	0	0	0	0	
5	0	0	0	0	844	3	0	0	0	0	
6	0	0	0	0	844	3	0	0	0	0	
7	0	0	0	0	844	3	0	0	0	0	
8	0	0	0	0	844	3	0	0	0	0	
9	0	0	0	0	845	3	0	0	0	0	
10	0	0	0	0	845	3	0	0	0	0	
11	0	0	0	0	845	3	0	0	0	0	
12	0	0	0	0	846	3	0	0	0	0	
13	0	0	0	0	846	3	0	0	0	0	
14	0	0	0	0	846	3	0	0	0	0	
15	0	0	0	0	846	3	0	0	0	0	
0	0	0	0	0	846	3	0	0	0	0	
1	0	0	0	0	847	3	0	0	0	0	
2	0	0	0	0	847	3	0	0	0	0	
3	0	0	0	0	847	3	0	0	0	0	
4	0	0	0	0	847	3	0	0	0	0	
5	0	0	0	0	847	3	0	0	0	0	
6	0	0	0	0	848	3	0	0	0	0	
7	0	0	0	0	848	3	0	0	0	0	
8	0	0	0	0	848	3	0	0	0	0	
9	0	0	0	0	849	3	0	0	0	0	
10	0	0	0	0	849	3	0	0	0	0	
11	0	0	0	0	849	3	0	0	0	0	
12	0	0	0	0	850	3	0	0	0	0	
13	0	0	0	0	850	3	0	0	0	0	
14	0	0	0	0	850	3	0	0	0	0	
15	0	0	0	0	850	3	0	0	0	0	
0	0	0	0	0	851	3	0	0	0	0	
1	0	0	0	0	851	3	0	0	0	0	
2	0	0	0	0	851	3	0	0	0	0	
3	0	0	0	0	851	3	0	0	0	0	
4	0	0	0	0	851	3	0	0	0	0	
5	0	0	0	0	852	3	0	0	0	0	
6	0	0	0	0	852	3	0	0	0	0	
7	0	0	0	0	852	3	0	0	0	0	
8	0	0	0	0	852	3	0	0	0	0	
9	0	0	0	0	853	3	0	0	0	0	
10	0	0	0	0	854	3	0	0	0	0	
11	0	0	0	0	854	3	0	0	0	0	
12	0	0	0	0	854	3	0	0	0	0	
13	0	0	0	0	854	3	0	0	0	0	
14	0	0	0	0	854	3	0	0	0	0	
15	0	0	0	0	855	3	0	0	0	0	
0	0	0	0	0	854	3	0	0	0	0	
1	0	0	0	0	855	3	0	0	0	0	
2	0	0	0	0	855	3	0	0	0	0	
3	0	0	0	0	855	3	0	0	0	0	
4	0	0	0	0	855	3	0	0	0	0	
5	0	0	0	0	855	2	0	0	0	0	
6	0	0	0	0	856	3	0	0	0	0	
7	0	0	0	0	856	3	0	0	0	0	
8	0	0	0	0	856	3	0	0	0	0	
9	0	0	0	0	856	3	0	0	0	0	
10	0	0	0	0	856	3	0	0	0	0	
11	0	0	0	0	856	3	0	0	0	0	
12	0	0	0	0	856	3	0	0	0	0	
13	0	0	0	0	857	3	0	0	0	0	
14	0	0	0	0	857	3	0	0	0	0	
15	0	0	0	0	857	3	0	0	0	0	
0	0	0	0	0	857	3	0	0	0	0	
1	0	0	0	0	857	3	0	0	0	0	
2	0	0	0	0	858	3	0	0	0	0	
3	0	0	0	0	858	3	0	0	0	0	
4	0	0	0	0	858	3	0	0	0	0	
5	0	0	0	0	858	3	0	0	0	0	
6	0	0	0	0	858	3	0	0	0	0	
7	0	0	0	0	858	3	0	0	0	0	
8	0	0	0	0	859	4	0	0	0	0	
9	0	0	0	0	859	3	0	0	0	0	
10	0	0	0	0	859	3	0	0	0	0	
11	0	0	0	0	859	3	0	0	0	0	
12	0	0	0	0	858	3	0	0	0	0	
13	0	0	0	0	859	3	0	0	0	0	
14	0	0	0	0	859	3	0	0	0	0	
15	0	0	0	0	859	3	0	0	0	0	
0	0	0	0	0	860	4	0	0	0	0	
1	0	0	0	0	859	3	0	0	0	0	
2	0	0	0	0	860	3	0	0	0	0	
3	0	0	0	0	860	3	0	0	0	0	
4	0	0	0	0	860	3	0	0	0	0	
5	0	0	0	0	860	3	0	0	0	0	
6	0	0	0	0	860	3	0	0	0	0	
7	0	0	0	0	861	3	0	0	0	0	
8	0	0	0	0	860	3	0	0	0	0	
9	0	0	0	0	860	3	0	0	0	0	
10	0	0	0	0	861	3	0	0	0	0	
11	0	0	0	0	860	3	0	0	0	0	
12	0	0	0	0	861	3	0	0	0	0	
13	0	0	0	0	861	3	0	0	0	0	
14	0	0	0	0	861	3	0	0	0	0	
15	0	0	0	0	861	3	0	0	0	0	
0	0	0	0	0	861	4	0	0	0	0	
1	0	0	0	0	861	3	0	0	0	0	
2	0	0	0	0	861	2	0	0	0	0	
3	0	0	0	0	862	3	0	0	0	0	
4	0	0	0	0	862	3	0	0	0	0	
5	0	0	0	0	861	3	0	0	0	0	
6	0	0	0	0	862	3	0	0	0	0	
7	0	0	0	0	862	3	0	0	0	0	
8	0	0	0	0	862	3	0	0	0	0	
9	0	0	0	0	862	3	0	0	0	0	
10	0	0	0	0	862	2	0	0	0	0	
11	0	0	0	0	863	3	0	0	0	0	
12	0	0	0	0	862	3	0	0	0	0	
13	0	0	0	0	862	3	0	0	0	0	
14	0	0	0	0	862	3	0	0	0	0	
15	0	0	0	0	862	3	0	0	0	0	
0	0	0	0	0	863	4	0	0	0	0	
1	0	0	0	0	862	3	0	0	0	0	
2	0	0	0	0	862	2	0	0	0	0	
3	0	0	0	0	862	3	0	0	0	0	
4	0	0	0	0	862	3	0	0	0	0	
5	0	0	0	0	863	3	0	0	0	0	
6	0	0	0	0	862	3	0	0	0	0	
7	0	0	0	0	863	3	0	0	0	0	
8	0	0	0	0	863	3	0	0	0	0	
9	0	0	0	0	863	3	0	0	0	0	
10	0	0	0	0	863	3	0	0	0	0	
11	0	0	0	0	863	3	0	0	0	0	
12	0	0	0	0	863	3	0	0	0	0	
13	0	0	0	0	863	3	0	0	0	0	
14	0	0	0	0	863	3	0	0	0	0	
15	0	0	0	0	864	3	0	0	0	0	
0	0	0	0	0	864	3	0	0	0	0	
1	0	0	0	0	864	3	0	0	0	0	
2	0	0	0	0	864	3	0	0	0	0	
3	0	0	0	0	863	3	0	0	0	0	
4	0	0	0	0	864	3	0	0	0	0	
5	0	0	0	0	864	3	0	0	0	0	
6	0	0	0	0	863	3	0	0	0	0	
7	0	0	0	0	863	3	0	0	0	0	
8	0	0	0	0	864	3	0	0	0	0	
9	0	0	0	0	864	3	0	0	0	0	
10	0	0	0	0	864	2	0	0	0	0	
11	0	0	0	0	864	3	0	0	0	0	
12	0	0	0	0	864	3	0	0	0	0	
13	0	0	0	0	864	3	0	0	0	0	
14	0	0	0	0	865	3	0	0	0	0	
15	0	0	0	0	864	3	0	0	0	0	
0	0	0	0	0	864	4	0	0	0	0	
1	0	0	0	0	864	3	0	0	0	0	
2	0	0	0	0	864	2	0	0	0	0	
3	0	0	0	0	865	3	0	0	0	0	
4	0	0	0	0	864	3	0	0	0	0	
5	0	0	0	0	864	3	0	0	0	0	
6	0	0	0	0	865	3	0	0	0	0	
7	0	0	0	0	864	3	0	0	0	0	
8	0	0	0	0	865	4	0	0	0	0	
9	0	0	0	0	865	3	0	0	0	0	
10	0	0	0	0	865	2	0	0	0	0	
11	0	0	0	0	865	3	0	0	0	0	
12	0	0	0	0	864	3	0	0	0	0	
13	0	0	0	0	865	3	0	0	0	0	
14	0	0	0	0	864	3	0	0	0	0	
15	0	0	0	0	865	3	0	0	0	0	
0	0	0	0	0	865	4	0	0	0	0	
1	0	0	0	0	865	3	0	0	0	0	
2	0	0	0	0	865	3	0	0	0	0	
3	0	0	0	0	866	3	0	0	0	0	
4	0	0	0	0	866	3	0	0	0	0	
5	0	0	0	0	866	3	0	0	0	0	
6	0	0	0	0	865	3	0	0	0	0	
7	0	0	0	0	867	3	0	0	0	0	
8	0	0	0	0	866	4	0	0	0	0	
9	0	0	0	0	866	3	0	0	0	0	
10	0	0	0	0	866	3	0	0	0	0	
11	0	0	0	0	866	3	0	0	0	0	
12	0	0	0	0	867	3	0	0	0	0	
13	0	0	0	0	866	3	0	0	0	0	
14	0	0	0	0	866	3	0	0	0	0	
15	0	0	0	0	867	3	0	0	0	0	
0	0	0	0	0	866	4	0	0	0	0	
1	0	0	0	0	867	3	0	0	0	0	
2	0	0	0	0	867	3	0	0	0	0	
3	0	0	0	0	867	3	0	0	0	0	
4	0	0	0	0	867	3	0	0	0	0	
5	0	0	0	0	867	3	0	0	0	0	
6	0	0	0	0	868	3	0	0	0	0	
7	0	0	0	0	867	3	0	0	0	0	
8	0	0	0	0	868	4	0	0	0	0	
9	0	0	0	0	868	3	0	0	0	0	
10	0	0	0	0	867	3	0	0	0	0	
11	0	0	0	0	868	3	0	0	0	0	
12	0	0	0	0	868	3	0	0	0	0	
13	0	0	0	0	868	3	0	0	0	0	
14	0	0	0	0	868	3	0	0	0	0	
15	0	0	0	0	867	3	0	0	0	0	
0	0	0	0	0	868	4	0	0	0	0	
1	0	0	0	0	868	3	0	0	0	0	
2	0	0	0	0	868	3	0	0	0	0	
3	0	0	0	0	868	3	0	0	0	0	
4	0	0	0	0	868	3	0	0	0	0	
5	0	0	0	0	869	3	0	0	0	0	
6	0	0	0	0	868	3	0	0	0	0	
7	0	0	0	0	868	3	0	0	0	0	
8	0	0	0	0	868	4	0	0	0	0	
9	0	0	0	0	868	3	0	0	0	0	
10	0	0	0	0	869	3	0	0	0	0	
11	0	0	0	0	869	3	0	0	0	0	
12	0	0	0	0	868	3	0	0	0	0	
13	0	0	0	0	869	3	0	0	0	0	
14	0	0	0	0	869	3	0	0	0	0	
15	0	0	0	0	869	3	0	0	0	0	
0	0	0	0	0	869	4	0	0	0	0	
1	0	0	0	0	869	3	0	0	0	0	
2	0	0	0	0	869	3	0	0	0	0	
3	0	0	0	0	869	3	0	0	0	0	
4	0	0	0	0	869	3	0	0	0	0	
5	0	0	0	0	869	3	0	0	0	0	
6	0	0	0	0	868	3	0	0	0	0	
7	0	0	0	0	868	3	0	0	0	0	
8	0	0	0	0	868	4	0	0	0	0	
9	0	0	0	0	869	3	0	0	0	0	
10	0	0	0	0	868	3	0	0	0	0	
11	0	0	0	0	869	3	0	0	0	0	
12	0	0	0	0	868	3	0	0	0	0	
13	0	0	0	0	869	3	0	0	0	0	
14	0	0	0	0	869	3	0	0	0	0	
15	0	0	0	0	869	3	0	0	0	0	
0	0	0	0	0	869	4	0	0	0	0	
1	0	0	0	0	869	3	0	0	0	0	
2	0	0	0	0	868	3	0	0	0	0	
3	0	0	0	0	869	3	0	0	0	0	
4	0	0	0	0	869	3	0	0	0	0	
5	0	0	0	0	868	3	0	0	0	0	
6	0	0	0	0	869	3	0	0	0	0	
7	0	0	0	0	868	3	0	0	0	0	
8	0	0	0	0	868	3	0	0	0	0	
9	0	0	0	0	868	3	0	0	0	0	
10	0	0	0	0	868	3	0	0	0	0	
11	0	0	0	0	868	3	0	0	0	0	
12	0	0	0	0	868	3	0	0	0	0	
13	0	0	0	0	868	3	0	0	0	0	
14	0	0	0	0	868	3	0	0	0	0	
15	0	0	0	0	868	3	0	0	0	0	
0	0	0	0	0	868	3	0	0	0	0	
1	0	0	0	0	868	3	0	0	0	0	
2	0	0	0	0	869	3	0	0	0	0	
3	0	0	0	0	868	3	0	0	0	0	
4	0	0	0	0	868	3	0	0	0	0	
5	0	0	0	0	868	3	0	0	0	0	
6	0	0	0	0	868	3	0	0	0	0	
7	0	0	0	0	868	3	0	0	0	0	
8	0	0	0	0	868	4	0	0	0	0	
9	0	0	0	0	868	3	0	0	0	0	
10	0	0	0	0	867	3	0	0	0	0	
11	0	0	0	0	868	3	0	0	0	0	
12	0	0	0	0	867	3	0	0	0	0	
13	0	0	0	0	867	3	0	0	0	0	
14	0	0	0	0	867	3	0	0	0	0	
15	0	0	0	0	867	3	0	0	0	0	
0	0	0	0	0	867	4	0	0	0	0	
1	0	0	0	0	867	3	0	0	0	0	
2	0	0	0	0	867	3	0	0	0	0	
3	0	0	0	0	867	3	0	0	0	0	
4	0	0	0	0	867	3	0	0	0	0	
5	0	0	0	0	867	3	0	0	0	0	
6	0	0	0	0	867	3	0	0	0	0	
7	0	0	0	0	866	3	0	0	0	0	
8	0	0	0	0	867	4	0	0	0	0	
9	0	0	0	0	866	3	0	0	0	0	
10	0	0	0	0	866	3	0	0	0	0	
11	0	0	0	0	866	3	0	0	0	0	
12	0	0	0	0	866	3	0	0	0	0	
13	0	0	0	0	866	3	0	0	0	0	
14	0	0	0	0	866	3	0	0	0	0	
15	0	0	0	0	865	3	0	0	0	0	
0	0	0	0	0	865	4	0	0	0	0	
1	0	0	0	0	865	3	0	0	0	0	
2	0	0	0	0	865	3	0	0	0	0	
3	0	0	0	0	865	3	0	0	0	0	
4	0	0	0	0	864	3	0	0	0	0	
5	0	0	0	0	865	3	0	0	0	0	
6	0	0	0	0	864	3	0	0	0	0	
7	0	0	0	0	864	3	0	0	0	0	
8	0	0	0	0	864	4	0	0	0	0	
9	0	0	0	0	864	3	0	0	0	0	
10	0	0	0	0	864	3	0	0	0	0	
11	0	0	0	0	864	3	0	0	0	0	
12	0	0	0	0	864	3	0	0	0	0	
13	0	0	0	0	864	3	0	0	0	0	
14	0	0	0	0	863	3	0	0	0	0	
15	0	0	0	0	864	3	0	0	0	0	
0	0	0	0	0	863	4	0	0	0	0	
1	0	0	0	0	863	3	0	0	0	0	
2	0	0	0	0	863	3	0	0	0	0	
3	0	0	0	0	862	3	0	0	0	0	
4	0	0	0	0	862	3	0	0	0	0	
5	0	0	0	0	862	3	0	0	0	0	
6	0	0	0	0	862	3	0	0	0	0	
7	0	0	0	0	861	3	0	0	0	0	
8	0	0	0	0	861	4	0	0	0	0	
9	0	0	0	0	861	3	0	0	0	0	
10	0	0	0	0	861	3	0	0	0	0	
11	0	0	0	0	861	3	0	0	0	0	
12	0	0	0	0	861	3	0	0	0	0	
13	0	0	0	0	860	3	0	0	0	0	
14	0	0	0	0	860	3	0	0	0	0	
15	0	0	0	0	860	3	0	0	0	0	
0	0	0	0	0	860	4	0	0	0	0	
1	0	0	0	0	860	3	0	0	0	0	
2	0	0	0	0	860	3	0	0	0	0	
3	0	0	0	0	860	3	0	0	0	0	
4	0	0	0	0	860	3	0	0	0	0	
5	0	0	0	0	859	3	0	0	0	0	
6	0	0	0	0	859	3	0	0	0	0	
7	0	0	0	0	858	3	0	0	0	0	
8	0	0	0	0	859	3	0	0	0	0	
9	0	0	0	0	858	3	0	0	0	0	
10	0	0	0	0	858	2	0	0	0	0	
11	0	0	0	0	858	3	0	0	0	0	
12	0	0	0	0	857	3	0	0	0	0	
13	0	0	0	0	858	3	0	0	0	0	
14	0	0	0	0	857	3	0	0	0	0	
15	0	0	0	0	857	3	0	0	0	0	
0	0	0	0	0	857	4	0	0	0	0	
1	0	0	0	0	857	3	0	0	0	0	
2	0	0	0	0	857	2	0	0	0	0	
3	0	0	0	0	857	3	0	0	0	0	
4	0	0	0	0	857	3	0	0	0	0	
5	0	0	0	0	857	3	0	0	0	0	
6	0	0	0	0	856	3	0	0	0	0	
7	0	0	0	0	856	3	0	0	0	0	
8	0	0	0	0	856	3	0	0	0	0	
9	0	0	0	0	856	3	0	0	0	0	
10	0	0	0	0	856	2	0	0	0	0	
11	0	0	0	0	855	3	0	0	0	0	
12	0	0	0	0	855	3	0	0	0	0	
13	0	0	0	0	855	3	0	0	0	0	
14	0	0	0	0	855	3	0	0	0	0	
15	0	0	0	0	855	3	0	0	0	0	
0	0	0	0	0	854	3	0	0	0	0	
1	0	0	0	0	854	3	0	0	0	0	
2	0	0	0	0	854	3	0	0	0	0	
3	0	0	0	0	854	3	0	0	0	0	
4	0	0	0	0	854	3	0	0	0	0	
5	0	0	0	0	854	3	0	0	0	0	
6	0	0	0	0	854	3	0	0	0	0	
7	0	0	0	0	853	3	0	0	0	0	
8	0	0	0	0	853	3	0	0	0	0	
9	0	0	0	0	853	3	0	0	0	0	
10	0	0	0	0	852	3	0	0	0	0	
11	0	0	0	0	853	3	0	0	0	0	
12	0	0	0	0	852	3	0	0	0	0	
13	0	0	0	0	852	3	0	0	0	0	
14	0	0	0	0	852	3	0	0	0	0	
15	0	0	0	0	851	3	0	0	0	0	
0	0	0	0	0	852	3	0	0	0	0	
1	0	0	0	0	851	3	0	0	0	0	
2	0	0	0	0	851	3	0	0	0	0	
3	0	0	0	0	851	3	0	0	0	0	
4	0	0	0	0	851	3	0	0	0	0	
5	0	0	0	0	851	3	0	0	0	0	
6	0	0	0	0	850	3	0	0	0	0	
7	0	0	0	0	851	3	0	0	0	0	
8	0	0	0	0	851	3	0	0	0	0	
9	0	0	0	0	850	3	0	0	0	0	
10	0	0	0	0	850	2	0	0	0	0	
11	0	0	0	0	850	3	0	0	0	0	
12	0	0	0	0	850	3	0	0	0	0	
13	0	0	0	0	850	3	0	0	0	0	
14	0	0	0	0	849	3	0	0	0	0	
15	0	0	0	0	850	3	0	0	0	0	
0	0	0	0	0	849	3	0	0	0	0	
1	0	0	0	0	848	3	0	0	0	0	
2	0	0	0	0	849	2	0	0	0	0	
3	0	0	0	0	848	3	0	0	0	0	
4	0	0	0	0	848	3	0	0	0	0	
5	0	0	0	0	848	3	0	0	0	0	
6	0	0	0	0	848	3	0	0	0	0	
7	0	0	0	0	847	3	0	0	0	0	
8	0	0	0	0	847	3	0	0	0	0	
9	0	0	0	0	847	3	0	0	0	0	
10	0	0	0	0	847	2	0	0	0	0	
11	0	0	0	0	847	3	0	0	0	0	
12	0	0	0	0	847	3	0	0	0	0	
13	0	0	0	0	847	3	0	0	0	0	
14	0	0	0	0	846	3	0	0	0	0	
15	0	0	0	0	846	3	0	0	0	0	
0	0	0	0	0	846	3	0	0	0	0	
1	0	0	0	0	846	3	0	0	0	0	
2	0	0	0	0	846	3	0	0	0	0	
3	0	0	0	0	846	3	0	0	0	0	
4	0	0	0	0	845	3	0	0	0	0	
5	0	0	0	0	845	3	0	0	0	0	
6	0	0	0	0	844	3	0	0	0	0	
7	0	0	0	0	844	3	0	0	0	0	
8	0	0	0	0	844	3	0	0	0	0	
9	0	0	0	0	844	3	0	0	0	0	
10	0	0	0	0	844	3	0	0	0	0	
11	0	0	0	0	844	3	0	0	0	0	
12	0	0	0	0	843	3	0	0	0	0	
13	0	0	0	0	844	3	0	0	0	0	
14	0	0	0	0	843	3	0	0	0	0	
15	0	0	0	0	843	3	0	0	0	0	
0	0	0	0	0	843	3	0	0	0	0	
1	0	0	0	0	843	3	0	0	0	0	
2	0	0	0	0	843	3	0	0	0	0	
3	0	0	0	0	842	3	0	0	0	0	
4	0	0	0	0	842	3	0	0	0	0	
5	0	0	0	0	842	2	0	0	0	0	
6	0	0	0	0	841	3	0	0	0	0	
7	0	0	0	0	842	3	0	0	0	0	
8	0	0	0	0	841	3	0	0	0	0	
9	0	0	0	0	841	3	0	0	0	0	
10	0	0	0	0	840	3	0	0	0	0	
11	0	0	0	0	840	3	0	0	0	0	
12	0	0	0	0	840	3	0	0	0	0	
13	0	0	0	0	839	2	0	0	0	0	
14	0	0	0	0	839	3	0	0	0	0	
15	0	0	0	0	839	3	0	0	0	0	
0	0	0	0	0	839	3	0	0	0	0	
1	0	0	0	0	839	3	0	0	0	0	
2	0	0	0	0	838	3	0	0	0	0	
3	0	0	0	0	838	3	0	0	0	0	
4	0	0	0	0	838	3	0	0	0	0	
5	0	0	0	0	838	2	0	0	0	0	
6	0	0	0	0	838	3	0	0	0	0	
7	0	0	0	0	838	3	0	0	0	0	
8	0	0	0	0	837	3	0	0	0	0	
9	0	0	0	0	837	3	0	0	0	0	
10	0	0	0	0	836	3	0	0	0	0	
11	0	0	0	0	836	3	0	0	0	0	
12	0	0	0	0	836	3	0	0	0	0	
13	0	0	0	0	836	3	0	0	0	0	
14	0	0	0	0	835	3	0	0	0	0	
15	0	0	0	0	835	3	0	0	0	0	
0	0	0	0	0	835	3	0	0	0	0	
1	0	0	0	0	835	3	0	0	0	0	
2	0	0	0	0	834	3	0	0	0	0	
3	0	0	0	0	834	3	0	0	0	0	
4	0	0	0	0	833	3	0	0	0	0	
5	0	0	0	0	834	3	0	0	0	0	
6	0	0	0	0	833	3	0	0	0	0	
7	0	0	0	0	833	3	0	0	0	0	
8	0	0	0	0	833	3	0	0	0	0	
9	0	0	0	0	832	3	0	0	0	0	
10	0	0	0	0	832	3	0	0	0	0	
11	0	0	0	0	832	3	0	0	0	0	
12	0	0	0	0	832	3	0	0	0	0	
13	0	0	0	0	832	3	0	0	0	0	
14	0	0	0	0	831	3	0	0	0	0	
15	0	0	0	0	831	3	0	0	0	0	
0	0	0	0	0	831	3	0	0	0	0	
1	0	0	0	0	831	3	0	0	0	0	
2	0	0	0	0	830	3	0	0	0	0	
3	0	0	0	0	830	3	0	0	0	0	
4	0	0	0	0	830	3	0	0	0	0	
5	0	0	0	0	830	3	0	0	0	0	
6	0	0	0	0	829	3	0	0	0	0	
7	0	0	0	0	829	3	0	0	0	0	
8	0	0	0	0	829	3	0	0	0	0	
9	0	0	0	0	828	3	0	0	0	0	
10	0	0	0	0	828	3	0	0	0	0	
11	0	0	0	0	828	3	0	0	0	0	
12	0	0	0	0	828	3	0	0	0	0	
13	0	0	0	0	828	3	0	0	0	0	
14	0	0	0	0	828	3	0	0	0	0	
15	0	0	0	0	828	3	0	0	0	0	
0	0	0	0	0	828	3	0	0	0	0	
1	0	0	0	0	827	3	0	0	0	0	
2	0	0	0	0	827	3	0	0	0	0	
3	0	0	0	0	827	3	0	0	0	0	
4	0	0	0	0	827	3	0	0	0	0	
5	0	0	0	0	826	3	0	0	0	0	
6	0	0	0	0	827	3	0	0	0	0	
7	0	0	0	0	826	3	0	0	0	0	
8	0	0	0	0	826	3	0	0	0	0	
9	0	0	0	0	826	3	0	0	0	0	
10	0	0	0	0	825	3	0	0	0	0	
11	0	0	0	0	825	3	0	0	0	0	
12	0	0	0	0	825	3	0	0	0	0	
13	0	0	0	0	825	3	0	0	0	0	
14	0	0	0	0	825	3	0	0	0	0	
15	0	0	0	0	825	3	0	0	0	0	
0	0	0	0	0	825	3	0	0	0	0	
1	0	0	0	0	824	3	0	0	0	0	
2	0	0	0	0	825	3	0	0	0	0	
3	0	0	0	0	824	3	0	0	0	0	
4	0	0	0	0	824	3	0	0	0	0	
5	0	0	0	0	824	3	0	0	0	0	
6	0	0	0	0	824	3	0	0	0	0	
7	0	0	0	0	824	3	0	0	0	0	
8	0	0	0	0	824	3	0	0	0	0	
9	0	0	0	0	824	3	0	0	0	0	
10	0	0	0	0	824	3	0	0	0	0	
11	0	0	0	0	823	3	0	0	0	0	
12	0	0	0	0	824	3	0	0	0	0	
13	0	0	0	0	823	2	0	0	0	0	
14	0	0	0	0	823	3	0	0	0	0	
15	0	0	0	0	823	3	0	0	0	0	
0	0	0	0	0	822	3	0	0	0	0	
1	0	0	0	0	823	3	0	0	0	0	
2	0	0	0	0	822	3	0	0	0	0	
3	0	0	0	0	822	3	0	0	0	0	
4	0	0	0	0	822	3	0	0	0	0	
5	0	0	0	0	822	2	0	0	0	0	
6	0	0	0	0	822	3	0	0	0	0	
7	0	0	0	0	822	3	0	0	0	0	
8	0	0	0	0	822	3	0	0	0	0	
9	0	0	0	0	822	3	0	0	0	0	
10	0	0	0	0	822	3	0	0	0	0	
11	0	0	0	0	822	3	0	0	0	0	
12	0	0	0	0	821	3	0	0	0	0	
13	0	0	0	0	821	2	0	0	0	0	
14	0	0	0	0	821	3	0	0	0	0	
15	0	0	0	0	820	3	0	0	0	0	
0	0	0	0	0	820	3	0	0	0	0	
1	0	0	0	0	820	3	0	0	0	0	
2	0	0	0	0	820	3	0	0	0	0	
3	0	0	0	0	820	3	0	0	0	0	
4	0	0	0	0	820	3	0	0	0	0	
5	0	0	0	0	820	3	0	0	0	0	
6	0	0	0	0	820	3	0	0	0	0	
7	0	0	0	0	820	3	0	0	0	0	
8	0	0	0	0	819	3	0	0	0	0	
9	0	0	0	0	819	3	0	0	0	0	
10	0	0	0	0	820	3	0	0	0	0	
11	0	0	0	0	819	3	0	0	0	0	
12	0	0	0	0	819	3	0	0	0	0	
13	0	0	0	0	819	3	0	0	0	0	
14	0	0	0	0	819	3	0	0	0	0	
15	0	0	0	0	819	3	0	0	0	0	
0	0	0	0	0	819	3	0	0	0	0	
1	0	0	0	0	819	3	0	0	0	0	
2	0	0	0	0	819	3	0	0	0	0	
3	0	0	0	0	818	3	0	0	0	0	
4	0	0	0	0	819	3	0	0	0	0	
5	0	0	0	0	818	3	0	0	0	0	
6	0	0	0	0	818	3	0	0	0	0	
7	0	0	0	0	818	3	0	0	0	0	
8	0	0	0	0	818	3	0	0	0	0	
9	0	0	0	0	819	3	0	0	0	0	
10	0	0	0	0	818	2	0	0	0	0	
11	0	0	0	0	818	3	0	0	0	0	
12	0	0	0	0	818	3	0	0	0	0	
13	0	0	0	0	818	3	0	0	0	0	
14	0	0	0	0	819	3	0	0	0	0	
15	0	0	0	0	818	3	0	0	0	0	
0	0	0	0	0	818	3	0	0	0	0	
1	0	0	0	0	818	3	0	0	0	0	
2	0	0	0	0	818	2	0	0	0	0	
3	0	0	0	0	818	3	0	0	0	0	
4	0	0	0	0	818	3	0	0	0	0	
5	0	0	0	0	818	3	0	0	0	0	
6	0	0	0	0	818	3	0	0	0	0	
7	0	0	0	0	818	3	0	0	0	0	
8	0	0	0	0	818	3	0	0	0	0	
9	0	0	0	0	818	3	0	0	0	0	
10	0	0	0	0	817	3	0	0	0	0	
11	0	0	0	0	817	3	0	0	0	0	
12	0	0	0	0	818	3	0	0	0	0	
13	0	0	0	0	818	3	0	0	0	0	
14	0	0	0	0	818	3	0	0	0	0	
15	0	0	0	0	817	3	0	0	0	0	
0	0	0	0	0	818	3	0	0	0	0	
1	0	0	0	0	818	3	0	0	0	0	
2	0	0	0	0	818	3	0	0	0	0	
3	0	0	0	0	818	3	0	0	0	0	
4	0	0	0	0	818	3	0	0	0	0	
5	0	0	0	0	818	3	0	0	0	0	
6	0	0	0	0	818	3	0	0	0	0	
7	0	0	0	0	818	3	0	0	0	0	
8	0	0	0	0	818	3	0	0	0	0	
9	0	0	0	0	818	3	0	0	0	0	
10	0	0	0	0	818	3	0	0	0	0	
11	0	0	0	0	817	3	0	0	0	0	
12	0	0	0	0	818	3	0	0	0	0	
13	0	0	0	0	818	3	0	0	0	0	
14	0	0	0	0	818	3	0	0	0	0	
15	0	0	0	0	818	3	0	0	0	0	
0	0	0	0	0	817	3	0	0	0	0	
1	0	0	0	0	818	3	0	0	0	0	
2	0	0	0	0	817	2	0	0	0	0	
3	0	0	0	0	818	3	0	0	0	0	
4	0	0	0	0	817	3	0	0	0	0	
5	0	0	0	0	817	3	0	0	0	0	
6	0	0	0	0	818	3	0	0	0	0	
7	0	0	0	0	817	3	0	0	0	0	
8	0	0	0	0	817	3	0	0	0	0	
9	0	0	0	0	818	3	0	0	0	0	
10	0	0	0	0	817	2	0	0	0	0	
11	0	0	0	0	818	3	0	0	0	0	
12	0	0	0	0	817	3	0	0	0	0	
13	0	0	0	0	817	3	0	0	0	0	
14	0	0	0	0	817	3	0	0	0	0	
15	0	0	0	0	817	3	0	0	0	0	
0	0	0	0	0	817	3	0	0	0	0	
1	0	0	0	0	817	3	0	0	0	0	
2	0	0	0	0	817	2	0	0	0	0	
3	0	0	0	0	817	3	0	0	0	0	
4	0	0	0	0	816	3	0	0	0	0	
5	0	0	0	0	817	3	0	0	0	0	
6	0	0	0	0	816	3	0	0	0	0	
7	0	0	0	0	816	3	0	0	0	0	
8	0	0	0	0	816	3	0	0	0	0	
9	0	0	0	0	816	3	0	0	0	0	
10	0	0	0	0	816	3	0	0	0	0	
11	0	0	0	0	816	3	0	0	0	0	
12	0	0	0	0	816	3	0	0	0	0	
13	0	0	0	0	816	3	0	0	0	0	
14	0	0	0	0	816	3	0	0	0	0	
15	0	0	0	0	816	3	0	0	0	0	
0	0	0	0	0	816	3	0	0	0	0	
1	0	0	0	0	816	3	0	0	0	0	
2	0	0	0	0	816	3	0	0	0	0	
3	0	0	0	0	815	3	0	0	0	0	
4	0	0	0	0	816	3	0	0	0	0	
5	0	0	0	0	815	3	0	0	0	0	
6	0	0	0	0	815	3	0	0	0	0	
7	0	0	0	0	815	3	0	0	0	0	
8	0	0	0	0	815	3	0	0	0	0	
9	0	0	0	0	815	3	0	0	0	0	
10	0	0	0	0	815	3	0	0	0	0	
11	0	0	0	0	814	3	0	0	0	0	
12	0	0	0	0	815	3	0	0	0	0	
13	0	0	0	0	814	2	0	0	0	0	
14	0	0	0	0	814	3	0	0	0	0	
15	0	0	0	0	814	3	0	0	0	0	
0	0	0	0	0	814	3	0	0	0	0	
1	0	0	0	0	814	3	0	0	0	0	
2	0	0	0	0	814	3	0	0	0	0	
3	0	0	0	0	814	3	0	0	0	0	
4	0	0	0	0	813	3	0	0	0	0	
5	0	0	0	0	813	2	0	0	0	0	
6	0	0	0	0	813	3	0	0	0	0	
7	0	0	0	0	813	3	0	0	0	0	
8	0	0	0	0	813	3	0	0	0	0	
9	0	0	0	0	813	3	0	0	0	0	
10	0	0	0	0	812	3	0	0	0	0	
11	0	0	0	0	812	3	0	0	0	0	
12	0	0	0	0	812	3	0	0	0	0	
13	0	0	0	0	812	2	0	0	0	0	
14	0	0	0	0	812	3	0	0	0	0	
15	0	0	0	0	812	3	0	0	0	0	
0	0	0	0	0	812	3	0	0	0	0	
1	0	0	0	0	811	3	0	0	0	0	
2	0	0	0	0	811	3	0	0	0	0	
3	0	0	0	0	811	3	0	0	0	0	
4	0	0	0	0	811	3	0	0	0	0	
5	0	0	0	0	811	3	0	0	0	0	
6	0	0	0	0	810	3	0	0	0	0	
7	0	0	0	0	810	3	0	0	0	0	
8	0	0	0	0	810	3	0	0	0	0	
9	0	0	0	0	809	3	0	0	0	0	
10	0	0	0	0	809	3	0	0	0	0	
11	0	0	0	0	809	3	0	0	0	0	
12	0	0	0	0	808	3	0	0	0	0	
13	0	0	0	0	808	3	0	0	0	0	
14	0	0	0	0	808	3	0	0	0	0	
15	0	0	0	0	808	3	0	0	0	0	
0	0	0	0	0	807	3	0	0	0	0	
1	0	0	0	0	807	3	0	0	0	0	
2	0	0	0	0	807	3	0	0	0	0	
3	0	0	0	0	807	3	0	0	0	0	
4	0	0	0	0	807	3	0	0	0	0	
5	0	0	0	0	806	3	0	0	0	0	
6	0	0	0	0	807	3	0	0	0	0	
7	0	0	0	0	806	3	0	0	0	0	
8	0	0	0	0	806	3	0	0	0	0	
9	0	0	0	0	805	3	0	0	0	0	
10	0	0	0	0	805	3	0	0	0	0	
11	0	0	0	0	805	3	0	0	0	0	
12	0	0	0	0	804	3	0	0	0	0	
13	0	0	0	0	804	3	0	0	0	0	
14	0	0	0	0	803	3	0	0	0	0	
15	0	0	0	0	803	3	0	0	0	0	
0	0	0	0	0	803	3	0	0	0	0	
1	0	0	0	0	802	3	0	0	0	0	
2	0	0	0	0	802	3	0	0	0	0	
3	0	0	0	0	802	3	0	0	0	0	
4	0	0	0	0	801	3	0	0	0	0	
5	0	0	0	0	801	3	0	0	0	0	
6	0	0	0	0	800	3	0	0	0	0	
7	0	0	0	0	800	3	0	0	0	0	
8	0	0	0	0	800	3	0	0	0	0	
9	0	0	0	0	799	3	0	0	0	0	
10	0	0	0	0	799	3	0	0	0	0	
11	0	0	0	0	799	3	0	0	0	0	
12	0	0	0	0	798	3	0	0	0	0	
13	0	0	0	0	798	3	0	0	0	0	
14	0	0	0	0	798	3	0	0	0	0	
15	0	0	0	0	798	3	0	0	0	0	
0	0	0	0	0	796	3	0	0	0	0	
1	0	0	0	0	796	3	0	0	0	0	
2	0	0	0	0	796	3	0	0	0	0	
3	0	0	0	0	795	3	0	0	0	0	
4	0	0	0	0	795	3	0	0	0	0	
5	0	0	0	0	794	3	0	0	0	0	
6	0	0	0	0	794	3	0	0	0	0	
7	0	0	0	0	793	3	0	0	0	0	
8	0	0	0	0	793	3	0	0	0	0	
9	0	0	0	0	793	3	0	0	0	0	
10	0	0	0	0	792	3	0	0	0	0	
11	0	0	0	0	792	3	0	0	0	0	
12	0	0	0	0	791	3	0	0	0	0	
13	0	0	0	0	791	3	0	0	0	0	
14	0	0	0	0	791	3	0	0	0	0	
15	0	0	0	0	791	3	0	0	0	0	
0	0	0	0	0	790	3	0	0	0	0	
1	0	0	0	0	790	3	0	0	0	0	
2	0	0	0	0	789	3	0	0	0	0	
3	0	0	0	0	789	3	0	0	0	0	
4	0	0	0	0	788	3	0	0	0	0	
5	0	0	0	0	788	2	0	0	0	0	
6	0	0	0	0	788	3	0	0	0	0	
7	0	0	0	0	787	3	0	0	0	0	
8	0	0	0	0	787	3	0	0	0	0	
9	0	0	0	0	787	3	0	0	0	0	
10	0	0	0	0	786	3	0	0	0	0	
11	0	0	0	0	786	3	0	0	0	0	
12	0	0	0	0	785	3	0	0	0	0	
13	0	0	0	0	785	2	0	0	0	0	
14	0	0	0	0	784	3	0	0	0	0	
15	0	0	0	0	784	3	0	0	0	0	
0	0	0	0	0	784	3	0	0	0	0	
1	0	0	0	0	783	3	0	0	0	0	
2	0	0	0	0	783	3	0	0	0	0	
3	0	0	0	0	783	3	0	0	0	0	
4	0	0	0	0	783	3	0	0	0	0	
5	0	0	0	0	783	2	0	0	0	0	
6	0	0	0	0	782	3	0	0	0	0	
7	0	0	0	0	782	3	0	0	0	0	
8	0	0	0	0	782	3	0	0	0	0	
9	0	0	0	0	781	3	0	0	0	0	
10	0	0	0	0	781	3	0	0	0	0	
11	0	0	0	0	780	2	0	0	0	0	
12	0	0	0	0	780	3	0	0	0	0	
13	0	0	0	0	780	3	0	0	0	0	
14	0	0	0	0	780	3	0	0	0	0	
15	0	0	0	0	779	3	0	0	0	0	
0	0	0	0	0	779	3	0	0	0	0	
1	0	0	0	0	779	3	0	0	0	0	
2	0	0	0	0	778	3	0	0	0	0	
3	0	0	0	0	778	2	0	0	0	0	
4	0	0	0	0	778	3	0	0	0	0	
5	0	0	0	0	778	3	0	0	0	0	
6	0	0	0	0	777	3	0	0	0	0	
7	0	0	0	0	777	3	0	0	0	0	
8	0	0	0	0	777	3	0	0	0	0	
9	0	0	0	0	777	3	0	0	0	0	
10	0	0	0	0	776	3	0	0	0	0	
11	0	0	0	0	776	2	0	0	0	0	
12	0	0	0	0	775	3	0	0	0	0	
13	0	0	0	0	775	3	0	0	0	0	
14	0	0	0	0	775	3	0	0	0	0	
15	0	0	0	0	775	3	0	0	0	0	
0	0	0	0	0	775	3	0	0	0	0	
1	0	0	0	0	774	3	0	0	0	0	
2	0	0	0	0	774	1	0	0	0	0	
3	0	0	0	0	774	3	0	0	0	0	
4	0	0	0	0	773	3	0	0	0	0	
5	0	0	0	0	773	3	0	0	0	0	
6	0	0	0	0	772	2	0	0	0	0	
7	0	0	0	0	772	3	0	0	0	0	
8	0	0	0	0	772	3	0	0	0	0	
9	0	0	0	0	771	2	0	0	0	0	
10	0	0	0	0	772	1	0	0	0	0	
11	0	0	0	0	771	3	0	0	0	0	
12	0	0	0	0	771	3	0	0	0	0	
13	0	0	0	0	771	3	0	0	0	0	
14	0	0	0	0	770	2	0	0	0	0	
15	0	0	0	0	771	3	0	0	0	0	
0	0	0	0	0	770	3	0	0	0	0	
1	0	0	0	0	769	2	0	0	0	0	
2	0	0	0	0	769	1	0	0	0	0	
3	0	0	0	0	769	3	0	0	0	0	
4	0	0	0	0	769	3	0	0	0	0	
5	0	0	0	0	768	3	0	0	0	0	
6	0	0	0	0	768	3	0	0	0	0	
7	0	0	0	0	768	3	0	0	0	0	
8	0	0	0	0	767	3	0	0	0	0	
9	0	0	0	0	768	3	0	0	0	0	
10	0	0	0	0	767	3	0	0	0	0	
11	0	0	0	0	767	3	0	0	0	0	
12	0	0	0	0	766	3	0	0	0	0	
13	0	0	0	0	766	3	0	0	0	0	
14	0	0	0	0	766	3	0	0	0	0	
15	0	0	0	0	766	3	0	0	0	0	
0	0	0	0	0	765	3	0	0	0	0	
1	0	0	0	0	765	2	0	0	0	0	
2	0	0	0	0	764	2	0	0	0	0	
3	0	0	0	0	765	3	0	0	0	0	
4	0	0	0	0	764	2	0	0	0	0	
5	0	0	0	0	764	2	0	0	0	0	
6	0	0	0	0	764	3	0	0	0	0	
7	0	0	0	0	763	2	0	0	0	0	
8	0	0	0	0	763	3	0	0	0	0	
9	0	0	0	0	762	2	0	0	0	0	
10	0	0	0	0	762	1	0	0	0	0	
11	0	0	0	0	762	3	0	0	0	0	
12	0	0	0	0	761	2	0	0	0	0	
13	0	0	0	0	761	2	0	0	0	0	
14	0	0	0	0	760	2	0	0	0	0	
15	0	0	0	0	761	2	0	0	0	0	
0	0	0	0	0	760	3	0	0	0	0	
1	0	0	0	0	760	2	0	0	0	0	
2	0	0	0	0	760	1	0	0	0	0	
3	0	0	0	0	760	2	0	0	0	0	
4	0	0	0	0	759	2	0	0	0	0	
5	0	0	0	0	759	2	0	0	0	0	
6	0	0	0	0	758	2	0	0	0	0	
7	0	0	0	0	759	3	0	0	0	0	
8	0	0	0	0	758	3	0	0	0	0	
9	0	0	0	0	758	2	0	0	0	0	
10	0	0	0	0	757	1	0	0	0	0	
11	0	0	0	0	757	2	0	0	0	0	
12	0	0	0	0	757	2	0	0	0	0	
13	0	0	0	0	756	2	0	0	0	0	
14	0	0	0	0	756	2	0	0	0	0	
15	0	0	0	0	756	2	0	0	0	0	
0	0	0	0	0	755	3	0	0	0	0	
1	0	0	0	0	755	2	0	0	0	0	
2	0	0	0	0	755	2	0	0	0	0	
3	0	0	0	0	755	2	0	0	0	0	
4	0	0	0	0	754	2	0	0	0	0	
5	0	0	0	0	754	2	0	0	0	0	
6	0	0	0	0	754	2	0	0	0	0	
7	0	0	0	0	754	2	0	0	0	0	
8	0	0	0	0	753	3	0	0	0	0	
9	0	0	0	0	753	2	0	0	0	0	
10	0	0	0	0	752	2	0	0	0	0	
11	0	0	0	0	752	2	0	0	0	0	
12	0	0	0	0	752	2	0	0	0	0	
13	0	0	0	0	752	2	0	0	0	0	
14	0	0	0	0	752	2	0	0	0	0	
15	0	0	0	0	751	2	0	0	0	0	
0	0	0	0	0	751	3	0	0	0	0	
1	0	0	0	0	751	2	0	0	0	0	
2	0	0	0	0	750	2	0	0	0	0	
3	0	0	0	0	750	2	0	0	0	0	
4	0	0	0	0	750	2	0	0	0	0	
5	0	0	0	0	750	2	0	0	0	0	
6	0	0	0	0	749	2	0	0	0	0	
7	0	0	0	0	749	2	0	0	0	0	
8	0	0	0	0	749	3	0	0	0	0	
9	0	0	0	0	749	2	0	0	0	0	
10	0	0	0	0	748	2	0	0	0	0	
11	0	0	0	0	748	2	0	0	0	0	
12	0	0	0	0	748	2	0	0	0	0	
13	0	0	0	0	748	2	0	0	0	0	
14	0	0	0	0	748	2	0	0	0	0	
15	0	0	0	0	747	2	0	0	0	0	
0	0	0	0	0	747	3	0	0	0	0	
1	0	0	0	0	747	2	0	0	0	0	
2	0	0	0	0	746	2	0	0	0	0	
3	0	0	0	0	746	2	0	0	0	0	
4	0	0	0	0	746	2	0	0	0	0	
5	0	0	0	0	745	1	0	0	0	0	
6	0	0	0	0	745	2	0	0	0	0	
7	0	0	0	0	745	2	0	0	0	0	
8	0	0	0	0	744	3	0	0	0	0	
9	0	0	0	0	744	2	0	0	0	0	
10	0	0	0	0	743	2	0	0	0	0	
11	0	0	0	0	743	2	0	0	0	0	
12	0	0	0	0	743	2	0	0	0	0	
13	0	0	0	0	743	2	0	0	0	0	
14	0	0	0	0	743	2	0	0	0	0	
15	0	0	0	0	743	2	0	0	0	0	
0	0	0	0	0	742	3	0	0	0	0	
1	0	0	0	0	742	2	0	0	0	0	
2	0	0	0	0	741	2	0	0	0	0	
3	0	0	0	0	742	2	0	0	0	0	
4	0	0	0	0	741	2	0	0	0	0	
5	0	0	0	0	741	2	0	0	0	0	
6	0	0	0	0	740	2	0	0	0	0	
7	0	0	0	0	740	2	0	0	0	0	
8	0	0	0	0	740	3	0	0	0	0	
9	0	0	0	0	739	2	0	0	0	0	
10	0	0	0	0	739	2	0	0	0	0	
11	0	0	0	0	739	2	0	0	0	0	
12	0	0	0	0	738	2	0	0	0	0	
13	0	0	0	0	738	2	0	0	0	0	
14	0	0	0	0	738	2	0	0	0	0	
15	0	0	0	0	737	2	0	0	0	0	
0	0	0	0	0	737	3	0	0	0	0	
1	0	0	0	0	737	2	0	0	0	0	
2	0	0	0	0	737	2	0	0	0	0	
3	0	0	0	0	736	2	0	0	0	0	
4	0	0	0	0	736	2	0	0	0	0	
5	0	0	0	0	736	2	0	0	0	0	
6	0	0	0	0	735	2	0	0	0	0	
7	0	0	0	0	735	2	0	0	0	0	
8	0	0	0	0	734	2	0	0	0	0	
9	0	0	0	0	734	2	0	0	0	0	
10	0	0	0	0	734	2	0	0	0	0	
11	0	0	0	0	733	2	0	0	0	0	
12	0	0	0	0	733	2	0	0	0	0	
13	0	0	0	0	732	2	0	0	0	0	
14	0	0	0	0	732	2	0	0	0	0	
15	0	0	0	0	732	2	0	0	0	0	
0	0	0	0	0	731	2	0	0	0	0	
1	0	0	0	0	731	2	0	0	0	0	
2	0	0	0	0	731	2	0	0	0	0	
3	0	0	0	0	731	2	0	0	0	0	
4	0	0	0	0	730	2	0	0	0	0	
5	0	0	0	0	729	2	0	0	0	0	
6	0	0	0	0	730	2	0	0	0	0	
7	0	0	0	0	729	2	0	0	0	0	
8	0	0	0	0	729	3	0	0	0	0	
9	0	0	0	0	729	2	0	0	0	0	
10	0	0	0	0	728	2	0	0	0	0	
11	0	0	0	0	728	2	0	0	0	0	
12	0	0	0	0	728	2	0	0	0	0	
13	0	0	0	0	727	2	0	0	0	0	
14	0	0	0	0	727	2	0	0	0	0	
15	0	0	0	0	726	2	0	0	0	0	
0	0	0	0	0	726	3	0	0	0	0	
1	0	0	0	0	725	2	0	0	0	0	
2	0	0	0	0	725	2	0	0	0	0	
3	0	0	0	0	724	2	0	0	0	0	
4	0	0	0	0	724	2	0	0	0	0	
5	0	0	0	0	724	2	0	0	0	0	
6	0	0	0	0	723	2	0	0	0	0	
7	0	0	0	0	723	2	0	0	0	0	
8	0	0	0	0	723	3	0	0	0	0	
9	0	0	0	0	722	2	0	0	0	0	
10	0	0	0	0	722	2	0	0	0	0	
11	0	0	0	0	721	2	0	0	0	0	
12	0	0	0	0	721	2	0	0	0	0	
13	0	0	0	0	720	1	0	0	0	0	
14	0	0	0	0	720	2	0	0	0	0	
15	0	0	0	0	720	2	0	0	0	0	
0	0	0	0	0	719	3	0	0	0	0	
1	0	0	0	0	719	2	0	0	0	0	
2	0	0	0	0	718	2	0	0	0	0	
3	0	0	0	0	718	2	0	0	0	0	
4	0	0	0	0	717	2	0	0	0	0	
5	0	0	0	0	717	1	0	0	0	0	
6	0	0	0	0	716	2	0	0	0	0	
7	0	0	0	0	716	2	0	0	0	0	
8	0	0	0	0	715	3	0	0	0	0	
9	0	0	0	0	715	2	0	0	0	0	
10	0	0	0	0	714	2	0	0	0	0	
11	0	0	0	0	714	2	0	0	0	0	
12	0	0	0	0	713	2	0	0	0	0	
13	0	0	0	0	713	1	0	0	0	0	
14	0	0	0	0	713	2	0	0	0	0	
15	0	0	0	0	712	2	0	0	0	0	
0	0	0	0	0	711	2	0	0	0	0	
1	0	0	0	0	711	2	0	0	0	0	
2	0	0	0	0	711	2	0	0	0	0	
3	0	0	0	0	710	2	0	0	0	0	
4	0	0	0	0	710	2	0	0	0	0	
5	0	0	0	0	709	2	0	0	0	0	
6	0	0	0	0	709	2	0	0	0	0	
7	0	0	0	0	708	2	0	0	0	0	
8	0	0	0	0	708	3	0	0	0	0	
9	0	0	0	0	707	2	0	0	0	0	
10	0	0	0	0	707	2	0	0	0	0	
11	0	0	0	0	706	2	0	0	0	0	
12	0	0	0	0	705	2	0	0	0	0	
13	0	0	0	0	705	2	0	0	0	0	
14	0	0	0	0	704	2	0	0	0	0	
15	0	0	0	0	704	2	0	0	0	0	
0	0	0	0	0	704	3	0	0	0	0	
1	0	0	0	0	703	2	0	0	0	0	
2	0	0	0	0	703	2	0	0	0	0	
3	0	0	0	0	702	2	0	0	0	0	
4	0	0	0	0	702	2	0	0	0	0	
5	0	0	0	0	701	2	0	0	0	0	
6	0	0	0	0	700	2	0	0	0	0	
7	0	0	0	0	700	2	0	0	0	0	
8	0	0	0	0	700	2	0	0	0	0	
9	0	0	0	0	699	2	0	0	0	0	
10	0	0	0	0	699	1	0	0	0	0	
11	0	0	0	0	698	2	0	0	0	0	
12	0	0	0	0	697	2	0	0	0	0	
13	0	0	0	0	697	2	0	0	0	0	
14	0	0	0	0	697	2	0	0	0	0	
15	0	0	0	0	696	2	0	0	0	0	
0	0	0	0	0	696	2	0	0	0	0	
1	0	0	0	0	695	2	0	0	0	0	
2	0	0	0	0	695	1	0	0	0	0	
3	0	0	0	0	694	2	0	0	0	0	
4	0	0	0	0	694	2	0	0	0	0	
5	0	0	0	0	693	2	0	0	0	0	
6	0	0	0	0	693	2	0	0	0	0	
7	0	0	0	0	692	2	0	0	0	0	
8	0	0	0	0	691	2	0	0	0	0	
9	0	0	0	0	691	2	0	0	0	0	
10	0	0	0	0	691	1	0	0	0	0	
11	0	0	0	0	691	2	0	0	0	0	
12	0	0	0	0	689	2	0	0	0	0	
13	0	0	0	0	689	2	0	0	0	0	
14	0	0	0	0	688	2	0	0	0	0	
15	0	0	0	0	688	2	0	0	0	0	
0	0	0	0	0	688	2	0	0	0	0	
1	0	0	0	0	687	2	0	0	0	0	
2	0	0	0	0	686	2	0	0	0	0	
3	0	0	0	0	686	2	0	0	0	0	
4	0	0	0	0	685	2	0	0	0	0	
5	0	0	0	0	685	2	0	0	0	0	
6	0	0	0	0	684	2	0	0	0	0	
7	0	0	0	0	684	2	0	0	0	0	
8	0	0	0	0	683	2	0	0	0	0	
9	0	0	0	0	683	2	0	0	0	0	
10	0	0	0	0	683	2	0	0	0	0	
11	0	0	0	0	682	2	0	0	0	0	
12	0	0	0	0	681	2	0	0	0	0	
13	0	0	0	0	681	2	0	0	0	0	
14	0	0	0	0	680	2	0	0	0	0	
15	0	0	0	0	680	2	0	0	0	0	
0	0	0	0	0	679	2	0	0	0	0	
1	0	0	0	0	679	2	0	0	0	0	
2	0	0	0	0	678	2	0	0	0	0	
3	0	0	0	0	677	2	0	0	0	0	
4	0	0	0	0	676	2	0	0	0	0	
5	0	0	0	0	676	2	0	0	0	0	
6	0	0	0	0	675	2	0	0	0	0	
7	0	0	0	0	675	2	0	0	0	0	
8	0	0	0	0	674	2	0	0	0	0	
9	0	0	0	0	674	2	0	0	0	0	
10	0	0	0	0	673	1	0	0	0	0	
11	0	0	0	0	673	2	0	0	0	0	
12	0	0	0	0	672	2	0	0	0	0	
13	0	0	0	0	672	2	0	0	0	0	
14	0	0	0	0	671	2	0	0	0	0	
15	0	0	0	0	671	2	0	0	0	0	
0	0	0	0	0	670	2	0	0	0	0	
1	0	0	0	0	670	2	0	0	0	0	
2	0	0	0	0	669	1	0	0	0	0	
3	0	0	0	0	669	2	0	0	0	0	
4	0	0	0	0	668	2	0	0	0	0	
5	0	0	0	0	667	2	0	0	0	0	
6	0	0	0	0	667	2	0	0	0	0	
7	0	0	0	0	666	2	0	0	0	0	
8	0	0	0	0	665	2	0	0	0	0	
9	0	0	0	0	665	2	0	0	0	0	
10	0	0	0	0	664	2	0	0	0	0	
11	0	0	0	0	664	2	0	0	0	0	
12	0	0	0	0	663	2	0	0	0	0	
13	0	0	0	0	662	2	0	0	0	0	
14	0	0	0	0	662	2	0	0	0	0	
15	0	0	0	0	661	2	0	0	0	0	
0	0	0	0	0	660	2	0	0	0	0	
1	0	0	0	0	660	2	0	0	0	0	
2	0	0	0	0	659	2	0	0	0	0	
3	0	0	0	0	659	1	0	0	0	0	
4	0	0	0	0	658	2	0	0	0	0	
5	0	0	0	0	657	2	0	0	0	0	
6	0	0	0	0	656	2	0	0	0	0	
7	0	0	0	0	656	2	0	0	0	0	
8	0	0	0	0	655	2	0	0	0	0	
9	0	0	0	0	655	2	0	0	0	0	
10	0	0	0	0	654	2	0	0	0	0	
11	0	0	0	0	653	1	0	0	0	0	
12	0	0	0	0	653	2	0	0	0	0	
13	0	0	0	0	652	2	0	0	0	0	
14	0	0	0	0	651	1	0	0	0	0	
15	0	0	0	0	651	2	0	0	0	0	
0	0	0	0	0	650	2	0	0	0	0	
1	0	0	0	0	649	2	0	0	0	0	
2	0	0	0	0	648	2	0	0	0	0	
3	0	0	0	0	648	2	0	0	0	0	
4	0	0	0	0	647	2	0	0	0	0	
5	0	0	0	0	647	1	0	0	0	0	
6	0	0	0	0	646	2	0	0	0	0	
7	0	0	0	0	646	2	0	0	0	0	
8	0	0	0	0	644	2	0	0	0	0	
9	0	0	0	0	644	1	0	0	0	0	
10	0	0	0	0	643	1	0	0	0	0	
11	0	0	0	0	643	2	0	0	0	0	
12	0	0	0	0	642	1	0	0	0	0	
13	0	0	0	0	641	1	0	0	0	0	
14	0	0	0	0	641	2	0	0	0	0	
15	0	0	0	0	639	1	0	0	0	0	
0	0	0	0	0	639	2	0	0	0	0	
1	0	0	0	0	639	1	0	0	0	0	
2	0	0	0	0	638	1	0	0	0	0	
3	0	0	0	0	637	2	0	0	0	0	
4	0	0	0	0	636	1	0	0	0	0	
5	0	0	0	0	636	1	0	0	0	0	
6	0	0	0	0	635	1	0	0	0	0	
7	0	0	0	0	635	1	0	0	0	0	
8	0	0	0	0	634	2	0	0	0	0	
9	0	0	0	0	633	1	0	0	0	0	
10	0	0	0	0	632	1	0	0	0	0	
11	0	0	0	0	632	1	0	0	0	0	
12	0	0	0	0	631	1	0	0	0	0	
13	0	0	0	0	630	1	0	0	0	0	
14	0	0	0	0	630	1	0	0	0	0	
15	0	0	0	0	629	1	0	0	0	0	
0	0	0	0	0	628	2	0	0	0	0	
1	0	0	0	0	627	1	0	0	0	0	
2	0	0	0	0	627	1	0	0	0	0	
3	0	0	0	0	626	1	0	0	0	0	
4	0	0	0	0	625	1	0	0	0	0	
5	0	0	0	0	624	1	0	0	0	0	
6	0	0	0	0	624	1	0	0	0	0	
7	0	0	0	0	623	1	0	0	0	0	
8	0	0	0	0	622	2	0	0	0	0	
9	0	0	0	0	622	1	0	0	0	0	
10	0	0	0	0	621	1	0	0	0	0	
11	0	0	0	0	620	1	0	0	0	0	
12	0	0	0	0	620	1	0	0	0	0	
13	0	0	0	0	619	1	0	0	0	0	
14	0	0	0	0	618	1	0	0	0	0	
15	0	0	0	0	617	1	0	0	0	0	
0	0	0	0	0	616	1	0	0	0	0	
1	0	0	0	0	615	1	0	0	0	0	
2	0	0	0	0	615	1	0	0	0	0	
3	0	0	0	0	614	1	0	0	0	0	
4	0	0	0	0	614	1	0	0	0	0	
5	0	0	0	0	612	1	0	0	0	0	
6	0	0	0	0	612	1	0	0	0	0	
7	0	0	0	0	611	1	0	0	0	0	
8	0	0	0	0	610	1	0	0	0	0	
9	0	0	0	0	609	1	0	0	0	0	
10	0	0	0	0	609	1	0	0	0	0	
11	0	0	0	0	608	1	0	0	0	0	
12	0	0	0	0	607	1	0	0	0	0	
13	0	0	0	0	606	1	0	0	0	0	
14	0	0	0	0	606	1	0	0	0	0	
15	0	0	0	0	605	1	0	0	0	0	
0	0	0	0	0	604	1	0	0	0	0	
1	0	0	0	0	604	1	0	0	0	0	
2	0	0	0	0	603	1	0	0	0	0	
3	0	0	0	0	602	1	0	0	0	0	
4	0	0	0	0	601	1	0	0	0	0	
5	0	0	0	0	600	1	0	0	0	0	
6	0	0	0	0	600	1	0	0	0	0	
7	0	0	0	0	599	1	0	0	0	0	
8	0	0	0	0	598	2	0	0	0	0	
9	0	0	0	0	597	1	0	0	0	0	
10	0	0	0	0	596	1	0	0	0	0	
11	0	0	0	0	595	1	0	0	0	0	
12	0	0	0	0	595	1	0	0	0	0	
13	0	0	0	0	594	1	0	0	0	0	
14	0	0	0	0	593	1	0	0	0	0	
15	0	0	0	0	592	1	0	0	0	0	
0	0	0	0	0	591	2	0	0	0	0	
1	0	0	0	0	591	1	0	0	0	0	
2	0	0	0	0	590	1	0	0	0	0	
3	0	0	0	0	589	1	0	0	0	0	
4	0	0	0	0	589	1	0	0	0	0	
5	0	0	0	0	588	1	0	0	0	0	
6	0	0	0	0	587	1	0	0	0	0	
7	0	0	0	0	586	1	0	0	0	0	
8	0	0	0	0	586	2	0	0	0	0	
9	0	0	0	0	585	1	0	0	0	0	
10	0	0	0	0	584	1	0	0	0	0	
11	0	0	0	0	583	1	0	0	0	0	
12	0	0	0	0	582	1	0	0	0	0	
13	0	0	0	0	582	0	0	0	0	0	
14	0	0	0	0	580	1	0	0	0	0	
15	0	0	0	0	580	1	0	0	0	0	
0	0	0	0	0	579	2	0	0	0	0	
1	0	0	0	0	578	1	0	0	0	0	
2	0	0	0	0	577	1	0	0	0	0	
3	0	0	0	0	576	1	0	0	0	0	
4	0	0	0	0	576	1	0	0	0	0	
5	0	0	0	0	575	0	0	0	0	0	
6	0	0	0	0	574	1	0	0	0	0	
7	0	0	0	0	573	1	0	0	0	0	
8	0	0	0	0	573	2	0	0	0	0	
9	0	0	0	0	572	1	0	0	0	0	
10	0	0	0	0	572	1	0	0	0	0	
11	0	0	0	0	571	1	0	0	0	0	
12	0	0	0	0	570	1	0	0	0	0	
13	0	0	0	0	569	1	0	0	0	0	
14	0	0	0	0	568	1	0	0	0	0	
15	0	0	0	0	568	1	0	0	0	0	
0	0	0	0	0	567	2	0	0	0	0	
1	0	0	0	0	566	1	0	0	0	0	
2	0	0	0	0	565	1	0	0	0	0	
3	0	0	0	0	564	1	0	0	0	0	
4	0	0	0	0	564	1	0	0	0	0	
5	0	0	0	0	563	1	0	0	0	0	
6	0	0	0	0	562	1	0	0	0	0	
7	0	0	0	0	561	1	0	0	0	0	
8	0	0	0	0	560	1	0	0	0	0	
9	0	0	0	0	560	1	0	0	0	0	
10	0	0	0	0	559	1	0	0	0	0	
11	0	0	0	0	558	1	0	0	0	0	
12	0	0	0	0	558	1	0	0	0	0	
13	0	0	0	0	557	1	0	0	0	0	
14	0	0	0	0	557	1	0	0	0	0	
15	0	0	0	0	556	1	0	0	0	0	
0	0	0	0	0	555	1	0	0	0	0	
1	0	0	0	0	554	1	0	0	0	0	
2	0	0	0	0	553	1	0	0	0	0	
3	0	0	0	0	553	1	0	0	0	0	
4	0	0	0	0	552	1	0	0	0	0	
5	0	0	0	0	551	1	0	0	0	0	
6	0	0	0	0	551	1	0	0	0	0	
7	0	0	0	0	550	1	0	0	0	0	
8	0	0	0	0	549	1	0	0	0	0	
9	0	0	0	0	548	1	0	0	0	0	
10	0	0	0	0	547	0	0	0	0	0	
11	0	0	0	0	547	1	0	0	0	0	
12	0	0	0	0	546	1	0	0	0	0	
13	0	0	0	0	545	1	0	0	0	0	
14	0	0	0	0	544	1	0	0	0	0	
15	0	0	0	0	544	1	0	0	0	0	
0	0	0	0	0	543	1	0	0	0	0	
1	0	0	0	0	543	1	0	0	0	0	
2	0	0	0	0	542	0	0	0	0	0	
3	0	0	0	0	542	1	0	0	0	0	
4	0	0	0	0	540	1	0	0	0	0	
5	0	0	0	0	540	1	0	0	0	0	
6	0	0	0	0	539	1	0	0	0	0	
7	0	0	0	0	538	1	0	0	0	0	
8	0	0	0	0	537	1	0	0	0	0	
9	0	0	0	0	537	1	0	0	0	0	
10	0	0	0	0	536	1	0	0	0	0	
11	0	0	0	0	535	1	0	0	0	0	
12	0	0	0	0	535	1	0	0	0	0	
13	0	0	0	0	534	1	0	0	0	0	
14	0	0	0	0	533	1	0	0	0	0	
15	0	0	0	0	532	1	0	0	0	0	
0	0	0	0	0	531	1	0	0	0	0	
1	0	0	0	0	531	1	0	0	0	0	
2	0	0	0	0	530	1	0	0	0	0	
3	0	0	0	0	529	1	0	0	0	0	
4	0	0	0	0	529	1	0	0	0	0	
5	0	0	0	0	528	1	0	0	0	0	
6	0	0	0	0	528	1	0	0	0	0	
7	0	0	0	0	527	1	0	0	0	0	
8	0	0	0	0	526	1	0	0	0	0	
9	0	0	0	0	526	1	0	0	0	0	
10	0	0	0	0	525	1	0	0	0	0	
11	0	0	0	0	524	1	0	0	0	0	
12	0	0	0	0	523	1	0	0	0	0	
13	0	0	0	0	523	1	0	0	0	0	
14	0	0	0	0	522	1	0	0	0	0	
15	0	0	0	0	521	1	0	0	0	0	
0	0	0	0	0	520	1	0	0	0	0	
1	0	0	0	0	519	1	0	0	0	0	
2	0	0	0	0	519	0	0	0	0	0	
3	0	0	0	0	518	1	0	0	0	0	
4	0	0	0	0	518	1	0	0	0	0	
5	0	0	0	0	517	1	0	0	0	0	
6	0	0	0	0	516	1	0	0	0	0	
7	0	0	0	0	515	1	0	0	0	0	
8	0	0	0	0	515	1	0	0	0	0	
9	0	0	0	0	514	1	0	0	0	0	
10	0	0	0	0	513	0	0	0	0	0	
11	0	0	0	0	513	1	0	0	0	0	
12	0	0	0	0	512	1	0	0	0	0	
13	0	0	0	0	511	1	0	0	0	0	
14	0	0	0	0	510	1	0	0	0	0	
15	0	0	0	0	510	1	0	0	0	0	
0	0	0	0	0	509	1	0	0	0	0	
1	0	0	0	0	508	1	0	0	0	0	
2	0	0	0	0	508	0	0	0	0	0	
3	0	0	0	0	507	1	0	0	0	0	
4	0	0	0	0	506	1	0	0	0	0	
5	0	0	0	0	505	1	0	0	0	0	
6	0	0	0	0	504	1	0	0	0	0	
7	0	0	0	0	504	1	0	0	0	0	
8	0	0	0	0	503	1	0	0	0	0	
9	0	0	0	0	503	1	0	0	0	0	
10	0	0	0	0	502	1	0	0	0	0	
11	0	0	0	0	501	1	0	0	0	0	
12	0	0	0	0	500	1	0	0	0	0	
13	0	0	0	0	499	1	0	0	0	0	
14	0	0	0	0	499	1	0	0	0	0	
15	0	0	0	0	498	1	0	0	0	0	
0	0	0	0	0	498	1	0	0	0	0	
1	0	0	0	0	497	1	0	0	0	0	
2	0	0	0	0	496	1	0	0	0	0	
3	0	0	0	0	495	0	0	0	0	0	
4	0	0	0	0	495	1	0	0	0	0	
5	0	0	0	0	494	1	0	0	0	0	
6	0	0	0	0	493	1	0	0	0	0	
7	0	0	0	0	492	1	0	0	0	0	
8	0	0	0	0	492	1	0	0	0	0	
9	0	0	0	0	491	1	0	0	0	0	
10	0	0	0	0	490	1	0	0	0	0	
11	0	0	0	0	489	1	0	0	0	0	
12	0	0	0	0	488	0	0	0	0	0	
13	0	0	0	0	488	0	0	0	0	0	
14	0	0	0	0	487	1	0	0	0	0	
15	0	0	0	0	486	1	0	0	0	0	
0	0	0	0	0	486	1	0	0	0	0	
1	0	0	0	0	485	1	0	0	0	0	
2	0	0	0	0	484	1	0	0	0	0	
3	0	0	0	0	483	1	0	0	0	0	
4	0	0	0	0	483	1	0	0	0	0	
5	0	0	0	0	482	0	0	0	0	0	
6	0	0	0	0	481	1	0	0	0	0	
7	0	0	0	0	481	1	0	0	0	0	
8	0	0	0	0	480	1	0	0	0	0	
9	0	0	0	0	479	1	0	0	0	0	
10	0	0	0	0	479	1	0	0	0	0	
11	0	0	0	0	478	1	0	0	0	0	
12	0	0	0	0	477	1	0	0	0	0	
13	0	0	0	0	476	0	0	0	0	0	
14	0	0	0	0	475	1	0	0	0	0	
15	0	0	0	0	475	1	0	0	0	0	
0	0	0	0	0	474	1	0	0	0	0	
1	0	0	0	0	473	1	0	0	0	0	
2	0	0	0	0	472	1	0	0	0	0	
3	0	0	0	0	472	1	0	0	0	0	
4	0	0	0	0	471	1	0	0	0	0	
5	0	0	0	0	470	0	0	0	0	0	
6	0	0	0	0	470	0	0	0	0	0	
7	0	0	0	0	469	1	0	0	0	0	
8	0	0	0	0	468	1	0	0	0	0	
9	0	0	0	0	468	1	0	0	0	0	
10	0	0	0	0	467	0	0	0	0	0	
11	0	0	0	0	466	1	0	0	0	0	
12	0	0	0	0	466	1	0	0	0	0	
13	0	0	0	0	465	0	0	0	0	0	
14	0	0	0	0	464	0	0	0	0	0	
15	0	0	0	0	463	0	0	0	0	0	
0	0	0	0	0	463	1	0	0	0	0	
1	0	0	0	0	462	0	0	0	0	0	
2	0	0	0	0	462	0	0	0	0	0	
3	0	0	0	0	461	1	0	0	0	0	
4	0	0	0	0	460	0	0	0	0	0	
5	0	0	0	0	460	1	0	0	0	0	
6	0	0	0	0	459	0	0	0	0	0	
7	0	0	0	0	459	1	0	0	0	0	
8	0	0	0	0	458	1	0	0	0	0	
9	0	0	0	0	457	1	0	0	0	0	
10	0	0	0	0	457	0	0	0	0	0	
11	0	0	0	0	456	0	0	0	0	0	
12	0	0	0	0	455	1	0	0	0	0	
13	0	0	0	0	455	0	0	0	0	0	
14	0	0	0	0	455	0	0	0	0	0	
15	0	0	0	0	454	0	0	0	0	0	
0	0	0	0	0	453	0	0	0	0	0	
1	0	0	0	0	453	0	0	0	0	0	
2	0	0	0	0	452	0	0	0	0	0	
3	0	0	0	0	451	1	0	0	0	0	
4	0	0	0	0	451	0	0	0	0	0	
5	0	0	0	0	450	0	0	0	0	0	
6	0	0	0	0	450	0	0	0	0	0	
7	0	0	0	0	449	0	0	0	0	0	
8	0	0	0	0	449	0	0	0	0	0	
9	0	0	0	0	449	0	0	0	0	0	
10	0	0	0	0	448	0	0	0	0	0	
11	0	0	0	0	447	0	0	0	0	0	
12	0	0	0	0	447	0	0	0	0	0	
13	0	0	0	0	446	0	0	0	0	0	
14	0	0	0	0	446	0	0	0	0	0	
15	0	0	0	0	446	0	0	0	0	0	
0	0	0	0	0	445	1	0	0	0	0	
1	0	0	0	0	445	0	0	0	0	0	
2	0	0	0	0	444	0	0	0	0	0	
3	0	0	0	0	444	0	0	0	0	0	
4	0	0	0	0	443	0	0	0	0	0	
5	0	0	0	0	443	0	0	0	0	0	
6	0	0	0	0	442	0	0	0	0	0	
7	0	0	0	0	442	0	0	0	0	0	
8	0	0	0	0	441	1	0	0	0	0	
9	0	0	0	0	441	0	0	0	0	0	
10	0	0	0	0	440	0	0	0	0	0	
11	0	0	0	0	440	0	0	0	0	0	
12	0	0	0	0	439	0	0	0	0	0	
13	0	0	0	0	439	0	0	0	0	0	
14	0	0	0	0	438	0	0	0	0	0	
15	0	0	0	0	438	0	0	0	0	0	
0	0	0	0	0	438	1	0	0	0	0	
1	0	0	0	0	437	0	0	0	0	0	
2	0	0	0	0	437	0	0	0	0	0	
3	0	0	0	0	436	0	0	0	0	0	
4	0	0	0	0	436	0	0	0	0	0	
5	0	0	0	0	436	0	0	0	0	0	
6	0	0	0	0	435	0	0	0	0	0	
7	0	0	0	0	435	0	0	0	0	0	
8	0	0	0	0	434	1	0	0	0	0	
9	0	0	0	0	434	0	0	0	0	0	
10	0	0	0	0	433	0	0	0	0	0	
11	0	0	0	0	433	0	0	0	0	0	
12	0	0	0	0	433	0	0	0	0	0	
13	0	0	0	0	432	0	0	0	0	0	
14	0	0	0	0	432	0	0	0	0	0	
15	0	0	0	0	431	0	0	0	0	0	
0	0	0	0	0	431	1	0	0	0	0	
1	0	0	0	0	431	0	0	0	0	0	
2	0	0	0	0	430	0	0	0	0	0	
3	0	0	0	0	430	0	0	0	0	0	
4	0	0	0	0	430	0	0	0	0	0	
5	0	0	0	0	429	0	0	0	0	0	
6	0	0	0	0	429	0	0	0	0	0	
7	0	0	0	0	428	0	0	0	0	0	
8	0	0	0	0	428	1	0	0	0	0	
9	0	0	0	0	428	0	0	0	0	0	
10	0	0	0	0	427	0	0	0	0	0	
11	0	0	0	0	427	0	0	0	0	0	
12	0	0	0	0	426	0	0	0	0	0	
13	0	0	0	0	426	0	0	0	0	0	
14	0	0	0	0	425	0	0	0	0	0	
15	0	0	0	0	425	0	0	0	0	0	
0	0	0	0	0	424	1	0	0	0	0	
1	0	0	0	0	424	0	0	0	0	0	
2	0	0	0	0	423	0	0	0	0	0	
3	0	0	0	0	423	0	0	0	0	0	
4	0	0	0	0	423	0	0	0	0	0	
5	0	0	0	0	422	0	0	0	0	0	
6	0	0	0	0	422	0	0	0	0	0	
7	0	0	0	0	421	0	0	0	0	0	
8	0	0	0	0	421	1	0	0	0	0	
9	0	0	0	0	420	0	0	0	0	0	
10	0	0	0	0	420	0	0	0	0	0	
11	0	0	0	0	419	0	0	0	0	0	
12	0	0	0	0	419	0	0	0	0	0	
13	0	0	0	0	419	0	0	0	0	0	
14	0	0	0	0	418	0	0	0	0	0	
15	0	0	0	0	417	0	0	0	0	0	
0	0	0	0	0	417	1	0	0	0	0	
1	0	0	0	0	416	0	0	0	0	0	
2	0	0	0	0	415	0	0	0	0	0	
3	0	0	0	0	415	0	0	0	0	0	
4	0	0	0	0	415	0	0	0	0	0	
5	0	0	0	0	414	0	0	0	0	0	
6	0	0	0	0	413	0	0	0	0	0	
7	0	0	0	0	413	0	0	0	0	0	
8	0	0	0	0	412	1	0	0	0	0	
9	0	0	0	0	412	0	0	0	0	0	
10	0	0	0	0	411	0	0	0	0	0	
11	0	0	0	0	411	0	0	0	0	0	
12	0	0	0	0	410	0	0	0	0	0	
13	0	0	0	0	409	0	0	0	0	0	
14	0	0	0	0	409	0	0	0	0	0	
15	0	0	0	0	408	0	0	0	0	0	
0	0	0	0	0	408	1	0	0	0	0	
1	0	0	0	0	407	0	0	0	0	0	
2	0	0	0	0	406	0	0	0	0	0	
3	0	0	0	0	406	0	0	0	0	0	
4	0	0	0	0	405	0	0	0	0	0	
5	0	0	0	0	404	0	0	0	0	0	
6	0	0	0	0	404	0	0	0	0	0	
7	0	0	0	0	403	0	0	0	0	0	
8	0	0	0	0	403	0	0	0	0	0	
9	0	0	0	0	402	0	0	0	0	0	
10	0	0	0	0	401	0	0	0	0	0	
11	0	0	0	0	401	0	0	0	0	0	
12	0	0	0	0	400	0	0	0	0	0	
13	0	0	0	0	399	0	0	0	0	0	
14	0	0	0	0	399	0	0	0	0	0	
15	0	0	0	0	398	0	0	0	0	0	
0	0	0	0	0	398	0	0	0	0	0	
1	0	0	0	0	397	0	0	0	0	0	
2	0	0	0	0	397	0	0	0	0	0	
3	0	0	0	0	396	0	0	0	0	0	
4	0	0	0	0	395	0	0	0	0	0	
5	0	0	0	0	395	0	0	0	0	0	
6	0	0	0	0	394	0	0	0	0	0	
7	0	0	0	0	393	0	0	0	0	0	
8	0	0	0	0	392	0	0	0	0	0	
9	0	0	0	0	392	0	0	0	0	0	
10	0	0	0	0	391	0	0	0	0	0	
11	0	0	0	0	391	0	0	0	0	0	
12	0	0	0	0	390	0	0	0	0	0	
13	0	0	0	0	389	0	0	0	0	0	
14	0	0	0	0	389	0	0	0	0	0	
15	0	0	0	0	388	0	0	0	0	0	
0	0	0	0	0	387	1	0	0	0	0	
1	0	0	0	0	387	0	0	0	0	0	
2	0	0	0	0	386	0	0	0	0	0	
3	0	0	0	0	386	0	0	0	0	0	
4	0	0	0	0	385	0	0	0	0	0	
5	0	0	0	0	384	0	0	0	0	0	
6	0	0	0	0	384	0	0	0	0	0	
7	0	0	0	0	384	0	0	0	0	0	
8	0	0	0	0	383	0	0	0	0	0	
9	0	0	0	0	382	0	0	0	0	0	
10	0	0	0	0	382	0	0	0	0	0	
11	0	0	0	0	381	0	0	0	0	0	
12	0	0	0	0	380	0	0	0	0	0	
13	0	0	0	0	380	0	0	0	0	0	
14	0	0	0	0	379	0	0	0	0	0	
15	0	0	0	0	379	0	0	0	0	0	
0	0	0	0	0	378	0	0	0	0	0	
1	0	0	0	0	377	0	0	0	0	0	
2	0	0	0	0	377	0	0	0	0	0	
3	0	0	0	0	376	0	0	0	0	0	
4	0	0	0	0	376	0	0	0	0	0	
5	0	0	0	0	376	0	0	0	0	0	
6	0	0	0	0	375	0	0	0	0	0	
7	0	0	0	0	374	0	0	0	0	0	
8	0	0	0	0	374	1	0	0	0	0	
9	0	0	0	0	373	0	0	0	0	0	
10	0	0	0	0	373	0	0	0	0	0	
11	0	0	0	0	372	0	0	0	0	0	
12	0	0	0	0	372	0	0	0	0	0	
13	0	0	0	0	371	0	0	0	0	0	
14	0	0	0	0	370	0	0	0	0	0	
15	0	0	0	0	370	0	0	0	0	0	
0	0	0	0	0	369	0	0	0	0	0	
1	0	0	0	0	369	0	0	0	0	0	
2	0	0	0	0	368	0	0	0	0	0	
3	0	0	0	0	368	0	0	0	0	0	
4	0	0	0	0	367	0	0	0	0	0	
5	0	0	0	0	367	0	0	0	0	0	
6	0	0	0	0	366	0	0	0	0	0	
7	0	0	0	0	366	0	0	0	0	0	
8	0	0	0	0	365	0	0	0	0	0	
9	0	0	0	0	365	0	0	0	0	0	
10	0	0	0	0	364	0	0	0	0	0	
11	0	0	0	0	364	0	0	0	0	0	
12	0	0	0	0	363	0	0	0	0	0	
13	0	0	0	0	363	0	0	0	0	0	
14	0	0	0	0	362	0	0	0	0	0	
15	0	0	0	0	361	0	0	0	0	0	
0	0	0	0	0	361	0	0	0	0	0	
1	0	0	0	0	360	0	0	0	0	0	
2	0	0	0	0	360	0	0	0	0	0	
3	0	0	0	0	359	0	0	0	0	0	
4	0	0	0	0	359	0	0	0	0	0	
5	0	0	0	0	358	0	0	0	0	0	
6	0	0	0	0	358	0	0	0	0	0	
7	0	0	0	0	357	0	0	0	0	0	
8	0	0	0	0	356	0	0	0	0	0	
9	0	0	0	0	356	0	0	0	0	0	
10	0	0	0	0	356	0	0	0	0	0	
11	0	0	0	0	355	0	0	0	0	0	
12	0	0	0	0	355	0	0	0	0	0	
13	0	0	0	0	354	0	0	0	0	0	
14	0	0	0	0	354	0	0	0	0	0	
15	0	0	0	0	353	0	0	0	0	0	
0	0	0	0	0	353	0	0	0	0	0	
1	0	0	0	0	353	0	0	0	0	0	
2	0	0	0	0	352	0	0	0	0	0	
3	0	0	0	0	352	0	0	0	0	0	
4	0	0	0	0	351	0	0	0	0	0	
5	0	0	0	0	351	0	0	0	0	0	
6	0	0	0	0	350	0	0	0	0	0	
7	0	0	0	0	350	0	0	0	0	0	
8	0	0	0	0	350	0	0	0	0	0	
9	0	0	0	0	349	0	0	0	0	0	
10	0	0	0	0	349	0	0	0	0	0	
11	0	0	0	0	348	0	0	0	0	0	
12	0	0	0	0	348	0	0	0	0	0	
13	0	0	0	0	347	0	0	0	0	0	
14	0	0	0	0	347	0	0	0	0	0	
15	0	0	0	0	347	0	0	0	0	0	
0	0	0	0	0	346	0	0	0	0	0	
1	0	0	0	0	346	0	0	0	0	0	
2	0	0	0	0	345	0	0	0	0	0	
3	0	0	0	0	345	0	0	0	0	0	
4	0	0	0	0	345	0	0	0	0	0	
5	0	0	0	0	344	0	0	0	0	0	
6	0	0	0	0	344	0	0	0	0	0	
7	0	0	0	0	344	0	0	0	0	0	
8	0	0	0	0	344	0	0	0	0	0	
9	0	0	0	0	343	0	0	0	0	0	
10	0	0	0	0	343	0	0	0	0	0	
11	0	0	0	0	343	0	0	0	0	0	
12	0	0	0	0	342	0	0	0	0	0	
13	0	0	0	0	342	0	0	0	0	0	
14	0	0	0	0	341	0	0	0	0	0	
15	0	0	0	0	341	0	0	0	0	0	
0	0	0	0	0	341	0	0	0	0	0	
1	0	0	0	0	340	0	0	0	0	0	
2	0	0	0	0	340	0	0	0	0	0	
3	0	0	0	0	339	0	0	0	0	0	
4	0	0	0	0	339	0	0	0	0	0	
5	0	0	0	0	339	0	0	0	0	0	
6	0	0	0	0	339	0	0	0	0	0	
7	0	0	0	0	338	0	0	0	0	0	
8	0	0	0	0	338	0	0	0	0	0	
9	0	0	0	0	338	0	0	0	0	0	
10	0	0	0	0	338	0	0	0	0	0	
11	0	0	0	0	337	0	0	0	0	0	
12	0	0	0	0	337	0	0	0	0	0	
13	0	0	0	0	336	0	0	0	0	0	
14	0	0	0	0	336	0	0	0	0	0	
15	0	0	0	0	336	0	0	0	0	0	
0	0	0	0	0	335	0	0	0	0	0	
1	0	0	0	0	335	0	0	0	0	0	
2	0	0	0	0	335	0	0	0	0	0	
3	0	0	0	0	334	0	0	0	0	0	
4	0	0	0	0	334	0	0	0	0	0	
5	0	0	0	0	333	0	0	0	0	0	
6	0	0	0	0	333	0	0	0	0	0	
7	0	0	0	0	332	0	0	0	0	0	
8	0	0	0	0	332	0	0	0	0	0	
9	0	0	0	0	332	0	0	0	0	0	
10	0	0	0	0	331	0	0	0	0	0	
11	0	0	0	0	331	0	0	0	0	0	
12	0	0	0	0	331	0	0	0	0	0	
13	0	0	0	0	330	0	0	0	0	0	
14	0	0	0	0	330	0	0	0	0	0	
15	0	0	0	0	329	0	0	0	0	0	
0	0	0	0	0	329	0	0	0	0	0	
1	0	0	0	0	329	0	0	0	0	0	
2	0	0	0	0	328	0	0	0	0	0	
3	0	0	0	0	328	0	0	0	0	0	
4	0	0	0	0	327	0	0	0	0	0	
5	0	0	0	0	327	0	0	0	0	0	
6	0	0	0	0	327	0	0	0	0	0	
7	0	0	0	0	326	0	0	0	0	0	
8	0	0	0	0	326	0	0	0	0	0	
9	0	0	0	0	325	0	0	0	0	0	
10	0	0	0	0	325	0	0	0	0	0	
11	0	0	0	0	324	0	0	0	0	0	
12	0	0	0	0	324	0	0	0	0	0	
13	0	0	0	0	324	0	0	0	0	0	
14	0	0	0	0	324	0	0	0	0	0	
15	0	0	0	0	323	0	0	0	0	0	
0	0	0	0	0	323	0	0	0	0	0	
1	0	0	0	0	323	0	0	0	0	0	
2	0	0	0	0	322	0	0	0	0	0	
3	0	0	0	0	322	0	0	0	0	0	
4	0	0	0	0	321	0	0	0	0	0	
5	0	0	0	0	321	0	0	0	0	0	
6	0	0	0	0	321	0	0	0	0	0	
7	0	0	0	0	320	0	0	0	0	0	
8	0	0	0	0	320	0	0	0	0	0	
9	0	0	0	0	319	0	0	0	0	0	
10	0	0	0	0	319	0	0	0	0	0	
11	0	0	0	0	319	0	0	0	0	0	
12	0	0	0	0	319	0	0	0	0	0	
13	0	0	0	0	318	0	0	0	0	0	
14	0	0	0	0	318	0	0	0	0	0	
15	0	0	0	0	318	0	0	0	0	0	
0	0	0	0	0	318	0	0	0	0	0	
1	0	0	0	0	317	0	0	0	0	0	
2	0	0	0	0	317	0	0	0	0	0	
3	0	0	0	0	316	0	0	0	0	0	
4	0	0	0	0	316	0	0	0	0	0	
5	0	0	0	0	316	0	0	0	0	0	
6	0	0	0	0	316	0	0	0	0	0	
7	0	0	0	0	316	0	0	0	0	0	
8	0	0	0	0	315	0	0	0	0	0	
9	0	0	0	0	315	0	0	0	0	0	
10	0	0	0	0	315	0	0	0	0	0	
11	0	0	0	0	315	0	0	0	0	0	
12	0	0	0	0	314	0	0	0	0	0	
13	0	0	0	0	314	0	0	0	0	0	
14	0	0	0	0	313	0	0	0	0	0	
15	0	0	0	0	313	0	0	0	0	0	
0	0	0	0	0	313	0	0	0	0	0	
1	0	0	0	0	313	0	0	0	0	0	
2	0	0	0	0	312	0	0	0	0	0	
3	0	0	0	0	312	0	0	0	0	0	
4	0	0	0	0	312	0	0	0	0	0	
5	0	0	0	0	312	0	0	0	0	0	
6	0	0	0	0	312	0	0	0	0	0	
7	0	0	0	0	312	0	0	0	0	0	
8	0	0	0	0	311	0	0	0	0	0	
9	0	0	0	0	311	0	0	0	0	0	
10	0	0	0	0	311	0	0	0	0	0	
11	0	0	0	0	311	0	0	0	0	0	
12	0	0	0	0	311	0	0	0	0	0	
13	0	0	0	0	310	0	0	0	0	0	
14	0	0	0	0	310	0	0	0	0	0	
15	0	0	0	0	310	0	0	0	0	0	
0	0	0	0	0	310	0	0	0	0	0	
1	0	0	0	0	309	0	0	0	0	0	
2	0	0	0	0	309	0	0	0	0	0	
3	0	0	0	0	309	0	0	0	0	0	
4	0	0	0	0	308	0	0	0	0	0	
5	0	0	0	0	308	0	0	0	0	0	
6	0	0	0	0	308	0	0	0	0	0	
7	0	0	0	0	308	0	0	0	0	0	
8	0	0	0	0	307	0	0	0	0	0	
9	0	0	0	0	307	0	0	0	0	0	
10	0	0	0	0	307	0	0	0	0	0	
11	0	0	0	0	307	0	0	0	0	0	
12	0	0	0	0	307	0	0	0	0	0	
13	0	0	0	0	306	0	0	0	0	0	
14	0	0	0	0	306	0	0	0	0	0	
15	0	0	0	0	306	0	0	0	0	0	
0	0	0	0	0	306	0	0	0	0	0	
1	0	0	0	0	305	0	0	0	0	0	
2	0	0	0	0	304	0	0	0	0	0	
3	0	0	0	0	305	0	0	0	0	0	
4	0	0	0	0	304	0	0	0	0	0	
5	0	0	0	0	304	0	0	0	0	0	
6	0	0	0	0	304	0	0	0	0	0	
7	0	0	0	0	303	0	0	0	0	0	
8	0	0	0	0	303	0	0	0	0	0	
9	0	0	0	0	303	0	0	0	0	0	
10	0	0	0	0	302	0	0	0	0	0	
11	0	0	0	0	302	0	0	0	0	0	
12	0	0	0	0	302	0	0	0	0	0	
13	0	0	0	0	302	0	0	0	0	0	
14	0	0	0	0	301	0	0	0	0	0	
15	0	0	0	0	301	0	0	0	0	0	
0	0	0	0	0	301	0	0	0	0	0	
1	0	0	0	0	300	0	0	0	0	0	
2	0	0	0	0	300	0	0	0	0	0	
3	0	0	0	0	300	0	0	0	0	0	
4	0	0	0	0	300	0	0	0	0	0	
5	0	0	0	0	299	0	0	0	0	0	
6	0	0	0	0	299	0	0	0	0	0	
7	0	0	0	0	299	0	0	0	0	0	
8	0	0	0	0	298	0	0	0	0	0	
9	0	0	0	0	298	0	0	0	0	0	
10	0	0	0	0	297	0	0	0	0	0	
11	0	0	0	0	297	0	0	0	0	0	
12	0	0	0	0	297	0	0	0	0	0	
13	0	0	0	0	297	0	0	0	0	0	
14	0	0	0	0	296	0	0	0	0	0	
15	0	0	0	0	296	0	0	0	0	0	
0	0	0	0	0	295	0	0	0	0	0	
1	0	0	0	0	295	0	0	0	0	0	
2	0	0	0	0	295	0	0	0	0	0	
3	0	0	0	0	295	0	0	0	0	0	
4	0	0	0	0	295	0	0	0	0	0	
5	0	0	0	0	295	0	0	0	0	0	
6	0	0	0	0	294	0	0	0	0	0	
7	0	0	0	0	294	0	0	0	0	0	
8	0	0	0	0	294	0	0	0	0	0	
9	0	0	0	0	293	0	0	0	0	0	
10	0	0	0	0	292	0	0	0	0	0	
11	0	0	0	0	292	0	0	0	0	0	
12	0	0	0	0	292	0	0	0	0	0	
13	0	0	0	0	291	0	0	0	0	0	
14	0	0	0	0	291	0	0	0	0	0	
15	0	0	0	0	291	0	0	0	0	0	
0	0	0	0	0	291	0	0	0	0	0	
1	0	0	0	0	290	0	0	0	0	0	
2	0	0	0	0	289	0	0	0	0	0	
3	0	0	0	0	289	0	0	0	0	0	
4	0	0	0	0	289	0	0	0	0	0	
5	0	0	0	0	288	0	0	0	0	0	
6	0	0	0	0	288	0	0	0	0	0	
7	0	0	0	0	287	0	0	0	0	0	
8	0	0	0	0	287	0	0	0	0	0	
9	0	0	0	0	287	0	0	0	0	0	
10	0	0	0	0	286	0	0	0	0	0	
11	0	0	0	0	286	0	0	0	0	0	
12	0	0	0	0	286	0	0	0	0	0	
13	0	0	0	0	285	0	0	0	0	0	
14	0	0	0	0	285	0	0	0	0	0	
15	0	0	0	0	284	0	0	0	0	0	
0	0	0	0	0	284	0	0	0	0	0	
1	0	0	0	0	283	0	0	0	0	0	
2	0	0	0	0	283	0	0	0	0	0	
3	0	0	0	0	282	0	0	0	0	0	
4	0	0	0	0	281	0	0	0	0	0	
5	0	0	0	0	281	0	0	0	0	0	
6	0	0	0	0	280	0	0	0	0	0	
7	0	0	0	0	280	0	0	0	0	0	
8	0	0	0	0	279	0	0	0	0	0	
9	0	0	0	0	279	0	0	0	0	0	
10	0	0	0	0	278	0	0	0	0	0	
11	0	0	0	0	278	0	0	0	0	0	
12	0	0	0	0	278	0	0	0	0	0	
13	0	0	0	0	277	0	0	0	0	0	
14	0	0	0	0	277	0	0	0	0	0	
15	0	0	0	0	276	0	0	0	0	0	
0	0	0	0	0	275	0	0	0	0	0	
1	0	0	0	0	275	0	0	0	0	0	
2	0	0	0	0	274	0	0	0	0	0	
3	0	0	0	0	274	0	0	0	0	0	
4	0	0	0	0	273	0	0	0	0	0	
5	0	0	0	0	272	0	0	0	0	0	
6	0	0	0	0	272	0	0	0	0	0	
7	0	0	0	0	271	0	0	0	0	0	
8	0	0	0	0	271	0	0	0	0	0	
9	0	0	0	0	270	0	0	0	0	0	
10	0	0	0	0	270	0	0	0	0	0	
11	0	0	0	0	269	0	0	0	0	0	
12	0	0	0	0	268	0	0	0	0	0	
13	0	0	0	0	268	0	0	0	0	0	
14	0	0	0	0	267	0	0	0	0	0	
15	0	0	0	0	267	0	0	0	0	0	
0	0	0	0	0	266	0	0	0	0	0	
1	0	0	0	0	266	0	0	0	0	0	
2	0	0	0	0	265	0	0	0	0	0	
3	0	0	0	0	265	0	0	0	0	0	
4	0	0	0	0	264	0	0	0	0	0	
5	0	0	0	0	263	0	0	0	0	0	
6	0	0	0	0	263	0	0	0	0	0	
7	0	0	0	0	263	0	0	0	0	0	
8	0	0	0	0	262	0	0	0	0	0	
9	0	0	0	0	262	0	0	0	0	0	
10	0	0	0	0	261	0	0	0	0	0	
11	0	0	0	0	261	0	0	0	0	0	
12	0	0	0	0	260	0	0	0	0	0	
13	0	0	0	0	259	0	0	0	0	0	
14	0	0	0	0	259	0	0	0	0	0	
15	0	0	0	0	259	0	0	0	0	0	
0	0	0	0	0	258	0	0	0	0	0	
1	0	0	0	0	257	0	0	0	0	0	
2	0	0	0	0	257	0	0	0	0	0	
3	0	0	0	0	257	0	0	0	0	0	
4	0	0	0	0	256	0	0	0	0	0	
5	0	0	0	0	256	0	0	0	0	0	
6	0	0	0	0	255	0	0	0	0	0	
7	0	0	0	0	255	0	0	0	0	0	
8	0	0	0	0	255	0	0	0	0	0	
9	0	0	0	0	255	0	0	0	0	0	
10	0	0	0	0	254	0	0	0	0	0	
11	0	0	0	0	254	0	0	0	0	0	
12	0	0	0	0	253	0	0	0	0	0	
13	0	0	0	0	253	0	0	0	0	0	
14	0	0	0	0	252	0	0	0	0	0	
15	0	0	0	0	252	0	0	0	0	0	
0	0	0	0	0	252	0	0	0	0	0	
1	0	0	0	0	251	0	0	0	0	0	
2	0	0	0	0	251	0	0	0	0	0	
3	0	0	0	0	251	0	0	0	0	0	
4	0	0	0	0	250	0	0	0	0	0	
5	0	0	0	0	250	0	0	0	0	0	
6	0	0	0	0	249	0	0	0	0	0	
7	0	0	0	0	249	0	0	0	0	0	
8	0	0	0	0	249	0	0	0	0	0	
9	0	0	0	0	248	0	0	0	0	0	
10	0	0	0	0	248	0	0	0	0	0	
11	0	0	0	0	248	0	0	0	0	0	
12	0	0	0	0	248	0	0	0	0	0	
13	0	0	0	0	247	0	0	0	0	0	
14	0	0	0	0	247	0	0	0	0	0	
15	0	0	0	0	246	0	0	0	0	0	
0	0	0	0	0	246	0	0	0	0	0	
1	0	0	0	0	245	0	0	0	0	0	
2	0	0	0	0	245	0	0	0	0	0	
3	0	0	0	0	244	0	0	0	0	0	
4	0	0	0	0	244	0	0	0	0	0	
5	0	0	0	0	244	0	0	0	0	0	
6	0	0	0	0	243	0	0	0	0	0	
7	0	0	0	0	243	0	0	0	0	0	
8	0	0	0	0	242	0	0	0	0	0	
9	0	0	0	0	242	0	0	0	0	0	
10	0	0	0	0	241	0	0	0	0	0	
11	0	0	0	0	241	0	0	0	0	0	
12	0	0	0	0	241	0	0	0	0	0	
13	0	0	0	0	240	0	0	0	0	0	
14	0	0	0	0	240	0	0	0	0	0	
15	0	0	0	0	239	0	0	0	0	0	
0	0	0	0	0	239	0	0	0	0	0	
1	0	0	0	0	238	0	0	0	0	0	
2	0	0	0	0	238	0	0	0	0	0	
3	0	0	0	0	237	0	0	0	0	0	
4	0	0	0	0	237	0	0	0	0	0	
5	0	0	0	0	236	0	0	0	0	0	
6	0	0	0	0	236	0	0	0	0	0	
7	0	0	0	0	235	0	0	0	0	0	
8	0	0	0	0	235	0	0	0	0	0	
9	0	0	0	0	234	0	0	0	0	0	
10	0	0	0	0	233	0	0	0	0	0	
11	0	0	0	0	233	0	0	0	0	0	
12	0	0	0	0	232	0	0	0	0	0	
13	0	0	0	0	232	0	0	0	0	0	
14	0	0	0	0	231	0	0	0	0	0	
15	0	0	0	0	231	0	0	0	0	0	
0	0	0	0	0	231	0	0	0	0	0	
1	0	0	0	0	230	0	0	0	0	0	
2	0	0	0	0	230	0	0	0	0	0	
3	0	0	0	0	229	0	0	0	0	0	
4	0	0	0	0	228	0	0	0	0	0	
5	0	0	0	0	228	0	0	0	0	0	
6	0	0	0	0	227	0	0	0	0	0	
7	0	0	0	0	227	0	0	0	0	0	
8	0	0	0	0	226	0	0	0	0	0	
9	0	0	0	0	225	0	0	0	0	0	
10	0	0	0	0	225	0	0	0	0	0	
11	0	0	0	0	224	0	0	0	0	0	
12	0	0	0	0	224	0	0	0	0	0	
13	0	0	0	0	223	0	0	0	0	0	
14	0	0	0	0	222	0	0	0	0	0	
15	0	0	0	0	222	0	0	0	0	0	
0	0	0	0	0	221	0	0	0	0	0	
1	0	0	0	0	220	0	0	0	0	0	
2	0	0	0	0	220	0	0	0	0	0	
3	0	0	0	0	219	0	0	0	0	0	
4	0	0	0	0	219	0	0	0	0	0	
5	0	0	0	0	218	0	0	0	0	0	
6	0	0	0	0	217	0	0	0	0	0	
7	0	0	0	0	217	0	0	0	0	0	
8	0	0	0	0	216	0	0	0	0	0	
9	0	0	0	0	216	0	0	0	0	0	
10	0	0	0	0	215	0	0	0	0	0	
11	0	0	0	0	214	0	0	0	0	0	
12	0	0	0	0	214	0	0	0	0	0	
13	0	0	0	0	213	0	0	0	0	0	
14	0	0	0	0	212	0	0	0	0	0	
15	0	0	0	0	211	0	0	0	0	0	
0	0	0	0	0	211	0	0	0	0	0	
1	0	0	0	0	210	0	0	0	0	0	
2	0	0	0	0	209	0	0	0	0	0	
3	0	0	0	0	209	0	0	0	0	0	
4	0	0	0	0	208	0	0	0	0	0	
5	0	0	0	0	207	0	0	0	0	0	
6	0	0	0	0	207	0	0	0	0	0	
7	0	0	0	0	206	0	0	0	0	0	
8	0	0	0	0	205	0	0	0	0	0	
9	0	0	0	0	204	0	0	0	0	0	
10	0	0	0	0	204	0	0	0	0	0	
11	0	0	0	0	203	0	0	0	0	0	
12	0	0	0	0	202	0	0	0	0	0	
13	0	0	0	0	202	0	0	0	0	0	
14	0	0	0	0	201	0	0	0	0	0	
15	0	0	0	0	200	0	0	0	0	0	
0	0	0	0	0	199	0	0	0	0	0	
1	0	0	0	0	198	0	0	0	0	0	
2	0	0	0	0	198	0	0	0	0	0	
3	0	0	0	0	197	0	0	0	0	0	
4	0	0	0	0	196	0	0	0	0	0	
5	0	0	0	0	195	0	0	0	0	0	
6	0	0	0	0	195	0	0	0	0	0	
7	0	0	0	0	194	0	0	0	0	0	
8	0	0	0	0	193	0	0	0	0	0	
9	0	0	0	0	192	0	0	0	0	0	
10	0	0	0	0	192	0	0	0	0	0	
11	0	0	0	0	191	0	0	0	0	0	
12	0	0	0	0	190	0	0	0	0	0	
13	0	0	0	0	189	0	0	0	0	0	
14	0	0	0	0	189	0	0	0	0	0	
15	0	0	0	0	188	0	0	0	0	0	
0	0	0	0	0	187	0	0	0	0	0	
1	0	0	0	0	186	0	0	0	0	0	
2	0	0	0	0	185	0	0	0	0	0	
3	0	0	0	0	185	0	0	0	0	0	
4	0	0	0	0	184	0	0	0	0	0	
5	0	0	0	0	183	0	0	0	0	0	
6	0	0	0	0	182	0	0	0	0	0	
7	0	0	0	0	181	0	0	0	0	0	
8	0	0	0	0	180	0	0	0	0	0	
9	0	0	0	0	179	0	0	0	0	0	
10	0	0	0	0	179	0	0	0	0	0	
11	0	0	0	0	178	0	0	0	0	0	
12	0	0	0	0	177	0	0	0	0	0	
13	0	0	0	0	176	0	0	0	0	0	
14	0	0	0	0	175	0	0	0	0	0	
15	0	0	0	0	175	0	0	0	0	0	
0	0	0	0	0	174	0	0	0	0	0	
1	0	0	0	0	173	0	0	0	0	0	
2	0	0	0	0	172	0	0	0	0	0	
3	0	0	0	0	172	0	0	0	0	0	
4	0	0	0	0	171	0	0	0	0	0	
5	0	0	0	0	170	0	0	0	0	0	
6	0	0	0	0	169	0	0	0	0	0	
7	0	0	0	0	168	0	0	0	0	0	
8	0	0	0	0	167	0	0	0	0	0	
9	0	0	0	0	166	0	0	0	0	0	
10	0	0	0	0	166	0	0	0	0	0	
11	0	0	0	0	164	0	0	0	0	0	
12	0	0	0	0	164	0	0	0	0	0	
13	0	0	0	0	163	0	0	0	0	0	
14	0	0	0	0	162	0	0	0	0	0	
15	0	0	0	0	161	0	0	0	0	0	
0	0	0	0	0	160	0	0	0	0	0	
1	0	0	0	0	159	0	0	0	0	0	
2	0	0	0	0	158	0	0	0	0	0	
3	0	0	0	0	158	0	0	0	0	0	
4	0	0	0	0	157	0	0	0	0	0	
5	0	0	0	0	156	0	0	0	0	0	
6	0	0	0	0	156	0	0	0	0	0	
7	0	0	0	0	155	0	0	0	0	0	
8	0	0	0	0	154	0	0	0	0	0	
9	0	0	0	0	152	0	0	0	0	0	
10	0	0	0	0	152	0	0	0	0	0	
11	0	0	0	0	151	0	0	0	0	0	
12	0	0	0	0	150	0	0	0	0	0	
13	0	0	0	0	150	0	0	0	0	0	
14	0	0	0	0	149	0	0	0	0	0	
15	0	0	0	0	148	0	0	0	0	0	
0	0	0	0	0	147	0	0	0	0	0	
1	0	0	0	0	146	0	0	0	0	0	
2	0	0	0	0	145	0	0	0	0	0	
3	0	0	0	0	144	0	0	0	0	0	
4	0	0	0	0	143	0	0	0	0	0	
5	0	0	0	0	143	0	0	0	0	0	
6	0	0	0	0	142	0	0	0	0	0	
7	0	0	0	0	141	0	0	0	0	0	
8	0	0	0	0	141	0	0	0	0	0	
9	0	0	0	0	140	0	0	0	0	0	
10	0	0	0	0	139	0	0	0	0	0	
11	0	0	0	0	138	0	0	0	0	0	
12	0	0	0	0	137	0	0	0	0	0	
13	0	0	0	0	137	0	0	0	0	0	
14	0	0	0	0	136	0	0	0	0	0	
15	0	0	0	0	135	0	0	0	0	0	
0	0	0	0	0	135	0	0	0	0	0	
1	0	0	0	0	133	0	0	0	0	0	
2	0	0	0	0	133	0	0	0	0	0	
3	0	0	0	0	132	0	0	0	0	0	
4	0	0	0	0	131	0	0	0	0	0	
5	0	0	0	0	131	0	0	0	0	0	
6	0	0	0	0	130	0	0	0	0	0	
7	0	0	0	0	129	0	0	0	0	0	
8	0	0	0	0	128	0	0	0	0	0	
9	0	0	0	0	127	0	0	0	0	0	
10	0	0	0	0	127	0	0	0	0	0	
11	0	0	0	0	126	0	0	0	0	0	
12	0	0	0	0	126	0	0	0	0	0	
13	0	0	0	0	125	0	0	0	0	0	
14	0	0	0	0	124	0	0	0	0	0	
15	0	0	0	0	124	0	0	0	0	0	
0	0	0	0	0	123	0	0	0	0	0	
1	0	0	0	0	122	0	0	0	0	0	
2	0	0	0	0	122	0	0	0	0	0	
3	0	0	0	0	121	0	0	0	0	0	
4	0	0	0	0	120	0	0	0	0	0	
5	0	0	0	0	120	0	0	0	0	0	
6	0	0	0	0	119	0	0	0	0	0	
7	0	0	0	0	118	0	0	0	0	0	
8	0	0	0	0	118	0	0	0	0	0	
9	0	0	0	0	116	0	0	0	0	0	
10	0	0	0	0	116	0	0	0	0	0	
11	0	0	0	0	115	0	0	0	0	0	
12	0	0	0	0	115	0	0	0	0	0	
13	0	0	0	0	114	0	0	0	0	0	
14	0	0	0	0	113	0	0	0	0	0	
15	0	0	0	0	113	0	0	0	0	0	
0	0	0	0	0	112	0	0	0	0	0	
1	0	0	0	0	111	0	0	0	0	0	
2	0	0	0	0	111	0	0	0	0	0	
3	0	0	0	0	110	0	0	0	0	0	
4	0	0	0	0	109	0	0	0	0	0	
5	0	0	0	0	109	0	0	0	0	0	
6	0	0	0	0	108	0	0	0	0	0	
7	0	0	0	0	107	0	0	0	0	0	
8	0	0	0	0	107	0	0	0	0	0	
9	0	0	0	0	106	0	0	0	0	0	
10	0	0	0	0	105	0	0	0	0	0	
11	0	0	0	0	104	0	0	0	0	0	
12	0	0	0	0	104	0	0	0	0	0	
13	0	0	0	0	103	0	0	0	0	0	
14	0	0	0	0	103	0	0	0	0	0	
15	0	0	0	0	102	0	0	0	0	0	
0	0	0	0	0	101	0	0	0	0	0	
1	0	0	0	0	100	0	0	0	0	0	
2	0	0	0	0	100	0	0	0	0	0	
3	0	0	0	0	99	0	0	0	0	0	
4	0	0	0	0	99	0	0	0	0	0	
5	0	0	0	0	98	0	0	0	0	0	
6	0	0	0	0	98	0	0	0	0	0	
7	0	0	0	0	97	0	0	0	0	0	
8	0	0	0	0	96	0	0	0	0	0	
9	0	0	0	0	95	0	0	0	0	0	
10	0	0	0	0	95	0	0	0	0	0	
11	0	0	0	0	95	0	0	0	0	0	
12	0	0	0	0	94	0	0	0	0	0	
13	0	0	0	0	94	0	0	0	0	0	
14	0	0	0	0	93	0	0	0	0	0	
15	0	0	0	0	92	0	0	0	0	0	
0	0	0	0	0	92	0	0	0	0	0	
1	0	0	0	0	91	0	0	0	0	0	
2	0	0	0	0	90	0	0	0	0	0	
3	0	0	0	0	90	0	0	0	0	0	
4	0	0	0	0	89	0	0	0	0	0	
5	0	0	0	0	89	0	0	0	0	0	
6	0	0	0	0	88	0	0	0	0	0	
7	0	0	0	0	88	0	0	0	0	0	
8	0	0	0	0	87	0	0	0	0	0	
9	0	0	0	0	87	0	0	0	0	0	
10	0	0	0	0	86	0	0	0	0	0	
11	0	0	0	0	86	0	0	0	0	0	
12	0	0	0	0	85	0	0	0	0	0	
13	0	0	0	0	84	0	0	0	0	0	
14	0	0	0	0	84	0	0	0	0	0	
15	0	0	0	0	83	0	0	0	0	0	
0	0	0	0	0	83	0	0	0	0	0	
1	0	0	0	0	82	0	0	0	0	0	
2	0	0	0	0	82	0	0	0	0	0	
3	0	0	0	0	81	0	0	0	0	0	
4	0	0	0	0	81	0	0	0	0	0	
5	0	0	0	0	80	0	0	0	0	0	
6	0	0	0	0	80	0	0	0	0	0	
7	0	0	0	0	79	0	0	0	0	0	
8	0	0	0	0	79	0	0	0	0	0	
9	0	0	0	0	78	0	0	0	0	0	
10	0	0	0	0	78	0	0	0	0	0	
11	0	0	0	0	77	0	0	0	0	0	
12	0	0	0	0	77	0	0	0	0	0	
13	0	0	0	0	76	0	0	0	0	0	
14	0	0	0	0	76	0	0	0	0	0	
15	0	0	0	0	75	0	0	0	0	0	
0	0	0	0	0	75	0	0	0	0	0	
1	0	0	0	0	74	0	0	0	0	0	
2	0	0	0	0	74	0	0	0	0	0	
3	0	0	0	0	73	0	0	0	0	0	
4	0	0	0	0	73	0	0	0	0	0	
5	0	0	0	0	72	0	0	0	0	0	
6	0	0	0	0	72	0	0	0	0	0	
7	0	0	0	0	71	0	0	0	0	0	
8	0	0	0	0	71	0	0	0	0	0	
9	0	0	0	0	71	0	0	0	0	0	
10	0	0	0	0	70	0	0	0	0	0	
11	0	0	0	0	70	0	0	0	0	0	
12	0	0	0	0	69	0	0	0	0	0	
13	0	0	0	0	69	0	0	0	0	0	
14	0	0	0	0	68	0	0	0	0	0	
15	0	0	0	0	68	0	0	0	0	0	
0	0	0	0	0	68	0	0	0	0	0	
1	0	0	0	0	67	0	0	0	0	0	
2	0	0	0	0	67	0	0	0	0	0	
3	0	0	0	0	66	0	0	0	0	0	
4	0	0	0	0	66	0	0	0	0	0	
5	0	0	0	0	66	0	0	0	0	0	
6	0	0	0	0	65	0	0	0	0	0	
7	0	0	0	0	65	0	0	0	0	0	
8	0	0	0	0	64	0	0	0	0	0	
9	0	0	0	0	64	0	0	0	0	0	
10	0	0	0	0	63	0	0	0	0	0	
11	0	0	0	0	63	0	0	0	0	0	
12	0	0	0	0	63	0	0	0	0	0	
13	0	0	0	0	62	0	0	0	0	0	
14	0	0	0	0	62	0	0	0	0	0	
15	0	0	0	0	62	0	0	0	0	0	
0	0	0	0	0	61	0	0	0	0	0	
1	0	0	0	0	61	0	0	0	0	0	
2	0	0	0	0	60	0	0	0	0	0	
3	0	0	0	0	60	0	0	0	0	0	
4	0	0	0	0	60	0	0	0	0	0	
5	0	0	0	0	59	0	0	0	0	0	
6	0	0	0	0	59	0	0	0	0	0	
7	0	0	0	0	59	0	0	0	0	0	
8	0	0	0	0	58	0	0	0	0	0	
9	0	0	0	0	58	0	0	0	0	0	
10	0	0	0	0	57	0	0	0	0	0	
11	0	0	0	0	57	0	0	0	0	0	
12	0	0	0	0	57	0	0	0	0	0	
13	0	0	0	0	56	0	0	0	0	0	
14	0	0	0	0	56	0	0	0	0	0	
15	0	0	0	0	56	0	0	0	0	0	
0	0	0	0	0	55	0	0	0	0	0	
1	0	0	0	0	55	0	0	0	0	0	
2	0	0	0	0	55	0	0	0	0	0	
3	0	0	0	0	54	0	0	0	0	0	
4	0	0	0	0	54	0	0	0	0	0	
5	0	0	0	0	54	0	0	0	0	0	
6	0	0	0	0	53	0	0	0	0	0	
7	0	0	0	0	53	0	0	0	0	0	
8	0	0	0	0	53	0	0	0	0	0	
9	0	0	0	0	52	0	0	0	0	0	
10	0	0	0	0	52	0	0	0	0	0	
11	0	0	0	0	51	0	0	0	0	0	
12	0	0	0	0	51	0	0	0	0	0	
13	0	0	0	0	51	0	0	0	0	0	
14	0	0	0	0	51	0	0	0	0	0	
15	0	0	0	0	50	0	0	0	0	0	
0	0	0	0	0	50	0	0	0	0	0	
1	0	0	0	0	49	0	0	0	0	0	
2	0	0	0	0	49	0	0	0	0	0	
3	0	0	0	0	49	0	0	0	0	0	
4	0	0	0	0	49	0	0	0	0	0	
5	0	0	0	0	48	0	0	0	0	0	
6	0	0	0	0	48	0	0	0	0	0	
7	0	0	0	0	48	0	0	0	0	0	
8	0	0	0	0	48	0	0	0	0	0	
9	0	0	0	0	47	0	0	0	0	0	
10	0	0	0	0	47	0	0	0	0	0	
11	0	0	0	0	47	0	0	0	0	0	
12	0	0	0	0	47	0	0	0	0	0	
13	0	0	0	0	46	0	0	0	0	0	
14	0	0	0	0	46	0	0	0	0	0	
15	0	0	0	0	46	0	0	0	0	0	
0	0	0	0	0	45	0	0	0	0	0	
1	0	0	0	0	45	0	0	0	0	0	
2	0	0	0	0	45	0	0	0	0	0	
3	0	0	0	0	44	0	0	0	0	0	
4	0	0	0	0	44	0	0	0	0	0	
5	0	0	0	0	44	0	0	0	0	0	
6	0	0	0	0	44	0	0	0	0	0	
7	0	0	0	0	43	0	0	0	0	0	
8	0	0	0	0	43	0	0	0	0	0	
9	0	0	0	0	43	0	0	0	0	0	
10	0	0	0	0	43	0	0	0	0	0	
11	0	0	0	0	42	0	0	0	0	0	
12	0	0	0	0	42	0	0	0	0	0	
13	0	0	0	0	42	0	0	0	0	0	
14	0	0	0	0	41	0	0	0	0	0	
15	0	0	0	0	41	0	0	0	0	0	
0	0	0	0	0	41	0	0	0	0	0	
1	0	0	0	0	40	0	0	0	0	0	
2	0	0	0	0	40	0	0	0	0	0	
3	0	0	0	0	40	0	0	0	0	0	
4	0	0	0	0	40	0	0	0	0	0	
5	0	0	0	0	40	0	0	0	0	0	
6	0	0	0	0	39	0	0	0	0	0	
7	0	0	0	0	39	0	0	0	0	0	
8	0	0	0	0	39	0	0	0	0	0	
9	0	0	0	0	39	0	0	0	0	0	
10	0	0	0	0	38	0	0	0	0	0	
11	0	0	0	0	38	0	0	0	0	0	
12	0	0	0	0	38	0	0	0	0	0	
13	0	0	0	0	38	0	0	0	0	0	
14	0	0	0	0	38	0	0	0	0	0	
15	0	0	0	0	37	0	0	0	0	0	
0	0	0	0	0	37	0	0	0	0	0	
1	0	0	0	0	37	0	0	0	0	0	
2	0	0	0	0	36	0	0	0	0	0	
3	0	0	0	0	36	0	0	0	0	0	
4	0	0	0	0	36	0	0	0	0	0	
5	0	0	0	0	36	0	0	0	0	0	
6	0	0	0	0	35	0	0	0	0	0	
7	0	0	0	0	36	0	0	0	0	0	
8	0	0	0	0	35	0	0	0	0	0	
9	0	0	0	0	35	0	0	0	0	0	
10	0	0	0	0	35	0	0	0	0	0	
11	0	0	0	0	35	0	0	0	0	0	
12	0	0	0	0	35	0	0	0	0	0	
13	0	0	0	0	34	0	0	0	0	0	
14	0	0	0	0	34	0	0	0	0	0	
15	0	0	0	0	34	0	0	0	0	0	
0	0	0	0	0	33	0	0	0	0	0	
1	0	0	0	0	33	0	0	0	0	0	
2	0	0	0	0	33	0	0	0	0	0	
3	0	0	0	0	33	0	0	0	0	0	
4	0	0	0	0	33	0	0	0	0	0	
5	0	0	0	0	33	0	0	0	0	0	
6	0	0	0	0	33	0	0	0	0	0	
7	0	0	0	0	32	0	0	0	0	0	
8	0	0	0	0	32	0	0	0	0	0	
9	0	0	0	0	32	0	0	0	0	0	
10	0	0	0	0	32	0	0	0	0	0	
11	0	0	0	0	31	0	0	0	0	0	
12	0	0	0	0	31	0	0	0	0	0	
13	0	0	0	0	31	0	0	0	0	0	
14	0	0	0	0	31	0	0	0	0	0	
15	0	0	0	0	31	0	0	0	0	0	
0	0	0	0	0	31	0	0	0	0	0	
1	0	0	0	0	30	0	0	0	0	0	
2	0	0	0	0	30	0	0	0	0	0	
3	0	0	0	0	30	0	0	0	0	0	
4	0	0	0	0	30	0	0	0	0	0	
5	0	0	0	0	30	0	0	0	0	0	
6	0	0	0	0	30	0	0	0	0	0	
7	0	0	0	0	30	0	0	0	0	0	
8	0	0	0	0	29	0	0	0	0	0	
9	0	0	0	0	29	0	0	0	0	0	
10	0	0	0	0	29	0	0	0	0	0	
11	0	0	0	0	29	0	0	0	0	0	
12	0	0	0	0	29	0	0	0	0	0	
13	0	0	0	0	28	0	0	0	0	0	
14	0	0	0	0	28	0	0	0	0	0	
15	0	0	0	0	28	0	0	0	0	0	
0	0	0	0	0	28	0	0	0	0	0	
1	0	0	0	0	27	0	0	0	0	0	
2	0	0	0	0	27	0	0	0	0	0	
3	0	0	0	0	27	0	0	0	0	0	
4	0	0	0	0	27	0	0	0	0	0	
5	0	0	0	0	27	0	0	0	0	0	
6	0	0	0	0	27	0	0	0	0	0	
7	0	0	0	0	27	0	0	0	0	0	
8	0	0	0	0	27	0	0	0	0	0	
9	0	0	0	0	26	0	0	0	0	0	
10	0	0	0	0	26	0	0	0	0	0	
11	0	0	0	0	26	0	0	0	0	0	
12	0	0	0	0	26	0	0	0	0	0	
13	0	0	0	0	25	0	0	0	0	0	
14	0	0	0	0	25	0	0	0	0	0	
15	0	0	0	0	25	0	0	0	0	0	
0	0	0	0	0	25	0	0	0	0	0	
1	0	0	0	0	25	0	0	0	0	0	
2	0	0	0	0	25	0	0	0	0	0	
3	0	0	0	0	25	0	0	0	0	0	
4	0	0	0	0	24	0	0	0	0	0	
5	0	0	0	0	24	0	0	0	0	0	
6	0	0	0	0	24	0	0	0	0	0	
7	0	0	0	0	24	0	0	0	0	0	
8	0	0	0	0	24	0	0	0	0	0	
9	0	0	0	0	24	0	0	0	0	0	
10	0	0	0	0	24	0	0	0	0	0	
11	0	0	0	0	24	0	0	0	0	0	
12	0	0	0	0	23	0	0	0	0	0	
13	0	0	0	0	23	0	0	0	0	0	
14	0	0	0	0	23	0	0	0	0	0	
15	0	0	0	0	23	0	0	0	0	0	
0	0	0	0	0	23	0	0	0	0	0	
1	0	0	0	0	22	0	0	0	0	0	
2	0	0	0	0	23	0	0	0	0	0	
3	0	0	0	0	22	0	0	0	0	0	
4	0	0	0	0	23	0	0	0	0	0	
5	0	0	0	0	22	0	0	0	0	0	
6	0	0	0	0	22	0	0	0	0	0	
7	0	0	0	0	22	0	0	0	0	0	
8	0	0	0	0	22	0	0	0	0	0	
9	0	0	0	0	21	0	0	0	0	0	
10	0	0	0	0	22	0	0	0	0	0	
11	0	0	0	0	21	0	0	0	0	0	
12	0	0	0	0	22	0	0	0	0	0	
13	0	0	0	0	21	0	0	0	0	0	
14	0	0	0	0	21	0	0	0	0	0	
15	0	0	0	0	21	0	0	0	0	0	
0	0	0	0	0	20	0	0	0	0	0	
1	0	0	0	0	20	0	0	0	0	0	
2	0	0	0	0	20	0	0	0	0	0	
3	0	0	0	0	20	0	0	0	0	0	
4	0	0	0	0	20	0	0	0	0	0	
5	0	0	0	0	20	0	0	0	0	0	
6	0	0	0	0	20	0	0	0	0	0	
7	0	0	0	0	20	0	0	0	0	0	
8	0	0	0	0	20	0	0	0	0	0	
9	0	0	0	0	19	0	0	0	0	0	
10	0	0	0	0	20	0	0	0	0	0	
11	0	0	0	0	19	0	0	0	0	0	
12	0	0	0	0	19	0	0	0	0	0	
13	0	0	0	0	19	0	0	0	0	0	
14	0	0	0	0	19	0	0	0	0	0	
15	0	0	0	0	19	0	0	0	0	0	
0	0	0	0	0	19	0	0	0	0	0	
1	0	0	0	0	19	0	0	0	0	0	
2	0	0	0	0	19	0	0	0	0	0	
3	0	0	0	0	19	0	0	0	0	0	
4	0	0	0	0	18	0	0	0	0	0	
5	0	0	0	0	18	0	0	0	0	0	
6	0	0	0	0	18	0	0	0	0	0	
7	0	0	0	0	18	0	0	0	0	0	
8	0	0	0	0	18	0	0	0	0	0	
9	0	0	0	0	18	0	0	0	0	0	
10	0	0	0	0	18	0	0	0	0	0	
11	0	0	0	0	18	0	0	0	0	0	
12	0	0	0	0	18	0	0	0	0	0	
13	0	0	0	0	18	0	0	0	0	0	
14	0	0	0	0	18	0	0	0	0	0	
15	0	0	0	0	18	0	0	0	0	0	
0	0	0	0	0	17	0	0	0	0	0	
1	0	0	0	0	17	0	0	0	0	0	
2	0	0	0	0	17	0	0	0	0	0	
3	0	0	0	0	17	0	0	0	0	0	
4	0	0	0	0	17	0	0	0	0	0	
5	0	0	0	0	17	0	0	0	0	0	
6	0	0	0	0	17	0	0	0	0	0	
7	0	0	0	0	17	0	0	0	0	0	
8	0	0	0	0	16	0	0	0	0	0	
9	0	0	0	0	16	0	0	0	0	0	
10	0	0	0	0	16	0	0	0	0	0	
11	0	0	0	0	16	0	0	0	0	0	
12	0	0	0	0	16	0	0	0	0	0	
13	0	0	0	0	16	0	0	0	0	0	
14	0	0	0	0	16	0	0	0	0	0	
15	0	0	0	0	16	0	0	0	0	0	
0	0	0	0	0	16	0	0	0	0	0	
1	0	0	0	0	16	0	0	0	0	0	
2	0	0	0	0	16	0	0	0	0	0	
3	0	0	0	0	16	0	0	0	0	0	
4	0	0	0	0	16	0	0	0	0	0	
5	0	0	0	0	16	0	0	0	0	0	
6	0	0	0	0	16	0	0	0	0	0	
7	0	0	0	0	15	0	0	0	0	0	
8	0	0	0	0	15	0	0	0	0	0	
9	0	0	0	0	15	0	0	0	0	0	
10	0	0	0	0	15	0	0	0	0	0	
11	0	0	0	0	15	0	0	0	0	0	
12	0	0	0	0	15	0	0	0	0	0	
13	0	0	0	0	15	0	0	0	0	0	
14	0	0	0	0	15	0	0	0	0	0	
15	0	0	0	0	15	0	0	0	0	0	
0	0	0	0	0	15	0	0	0	0	0	
1	0	0	0	0	14	0	0	0	0	0	
2	0	0	0	0	15	0	0	0	0	0	
3	0	0	0	0	15	0	0	0	0	0	
4	0	0	0	0	15	0	0	0	0	0	
5	0	0	0	0	15	0	0	0	0	0	
6	0	0	0	0	15	0	0	0	0	0	
7	0	0	0	0	14	0	0	0	0	0	
8	0	0	0	0	15	0	0	0	0	0	
9	0	0	0	0	14	0	0	0	0	0	
10	0	0	0	0	14	0	0	0	0	0	
11	0	0	0	0	14	0	0	0	0	0	
12	0	0	0	0	14	0	0	0	0	0	
13	0	0	0	0	14	0	0	0	0	0	
14	0	0	0	0	14	0	0	0	0	0	
15	0	0	0	0	14	0	0	0	0	0	
0	0	0	0	0	14	0	0	0	0	0	
1	0	0	0	0	13	0	0	0	0	0	
2	0	0	0	0	14	0	0	0	0	0	
3	0	0	0	0	13	0	0	0	0	0	
4	0	0	0	0	14	0	0	0	0	0	
5	0	0	0	0	13	0	0	0	0	0	
6	0	0	0	0	13	0	0	0	0	0	
7	0	0	0	0	13	0	0	0	0	0	
8	0	0	0	0	13	0	0	0	0	0	
9	0	0	0	0	13	0	0	0	0	0	
10	0	0	0	0	13	0	0	0	0	0	
11	0	0	0	0	13	0	0	0	0	0	
12	0	0	0	0	14	0	0	0	0	0	
13	0	0	0	0	13	0	0	0	0	0	
14	0	0	0	0	13	0	0	0	0	0	
15	0	0	0	0	13	0	0	0	0	0	
0	0	0	0	0	13	0	0	0	0	0	
1	0	0	0	0	13	0	0	0	0	0	
2	0	0	0	0	13	0	0	0	0	0	
3	0	0	0	0	13	0	0	0	0	0	
4	0	0	0	0	13	0	0	0	0	0	
5	0	0	0	0	13	0	0	0	0	0	
6	0	0	0	0	13	0	0	0	0	0	
7	0	0	0	0	12	0	0	0	0	0	
8	0	0	0	0	12	0	0	0	0	0	
9	0	0	0	0	12	0	0	0	0	0	
10	0	0	0	0	12	0	0	0	0	0	
11	0	0	0	0	12	0	0	0	0	0	
12	0	0	0	0	12	0	0	0	0	0	
13	0	0	0	0	12	0	0	0	0	0	
14	0	0	0	0	12	0	0	0	0	0	
15	0	0	0	0	12	0	0	0	0	0	
0	0	0	0	0	12	0	0	0	0	0	
1	0	0	0	0	12	0	0	0	0	0	
2	0	0	0	0	12	0	0	0	0	0	
3	0	0	0	0	12	0	0	0	0	0	
4	0	0	0	0	12	0	0	0	0	0	
5	0	0	0	0	12	0	0	0	0	0	
6	0	0	0	0	12	0	0	0	0	0	
7	0	0	0	0	12	0	0	0	0	0	
8	0	0	0	0	11	0	0	0	0	0	
9	0	0	0	0	11	0	0	0	0	0	
10	0	0	0	0	11	0	0	0	0	0	
11	0	0	0	0	11	0	0	0	0	0	
12	0	0	0	0	11	0	0	0	0	0	
13	0	0	0	0	11	0	0	0	0	0	
14	0	0	0	0	11	0	0	0	0	0	
15	0	0	0	0	11	0	0	0	0	0	
0	0	0	0	0	11	0	0	0	0	0	
1	0	0	0	0	11	0	0	0	0	0	
2	0	0	0	0	11	0	0	0	0	0	
3	0	0	0	0	11	0	0	0	0	0	
4	0	0	0	0	11	0	0	0	0	0	
5	0	0	0	0	11	0	0	0	0	0	
6	0	0	0	0	11	0	0	0	0	0	
7	0	0	0	0	11	0	0	0	0	0	
8	0	0	0	0	11	0	0	0	0	0	
9	0	0	0	0	10	0	0	0	0	0	
10	0	0	0	0	10	0	0	0	0	0	
11	0	0	0	0	11	0	0	0	0	0	
12	0	0	0	0	10	0	0	0	0	0	
13	0	0	0	0	10	0	0	0	0	0	
14	0	0	0	0	10	0	0	0	0	0	
15	0	0	0	0	10	0	0	0	0	0	
0	0	0	0	0	10	0	0	0	0	0	
1	0	0	0	0	10	0	0	0	0	0	
2	0	0	0	0	10	0	0	0	0	0	
3	0	0	0	0	10	0	0	0	0	0	
4	0	0	0	0	10	0	0	0	0	0	
5	0	0	0	0	10	0	0	0	0	0	
6	0	0	0	0	10	0	0	0	0	0	
7	0	0	0	0	10	0	0	0	0	0	
8	0	0	0	0	10	0	0	0	0	0	
9	0	0	0	0	10	0	0	0	0	0	
10	0	0	0	0	10	0	0	0	0	0	
11	0	0	0	0	10	0	0	0	0	0	
12	0	0	0	0	10	0	0	0	0	0	
13	0	0	0	0	10	0	0	0	0	0	
14	0	0	0	0	10	0	0	0	0	0	
15	0	0	0	0	10	0	0	0	0	0	
0	0	0	0	0	9	0	0	0	0	0	
1	0	0	0	0	9	0	0	0	0	0	
2	0	0	0	0	9	0	0	0	0	0	
3	0	0	0	0	9	0	0	0	0	0	
4	0	0	0	0	9	0	0	0	0	0	
5	0	0	0	0	9	0	0	0	0	0	
6	0	0	0	0	9	0	0	0	0	0	
7	0	0	0	0	9	0	0	0	0	0	
8	0	0	0	0	9	0	0	0	0	0	
9	0	0	0	0	9	0	0	0	0	0	
10	0	0	0	0	9	0	0	0	0	0	
11	0	0	0	0	9	0	0	0	0	0	
12	0	0	0	0	9	0	0	0	0	0	
13	0	0	0	0	9	0	0	0	0	0	
14	0	0	0	0	9	0	0	0	0	0	
15	0	0	0	0	9	0	0	0	0	0	
0	0	0	0	0	9	0	0	0	0	0	
1	0	0	0	0	9	0	0	0	0	0	
2	0	0	0	0	9	0	0	0	0	0	
3	0	0	0	0	9	0	0	0	0	0	
4	0	0	0	0	9	0	0	0	0	0	
5	0	0	0	0	9	0	0	0	0	0	
6	0	0	0	0	9	0	0	0	0	0	
7	0	0	0	0	9	0	0	0	0	0	
8	0	0	0	0	9	0	0	0	0	0	
9	0	0	0	0	8	0	0	0	0	0	
10	0	0	0	0	9	0	0	0	0	0	
11	0	0	0	0	9	0	0	0	0	0	
12	0	0	0	0	9	0	0	0	0	0	
13	0	0	0	0	9	0	0	0	0	0	
14	0	0	0	0	9	0	0	0	0	0	
15	0	0	0	0	9	0	0	0	0	0	
0	0	0	0	0	9	0	0	0	0	0	
1	0	0	0	0	9	0	0	0	0	0	
2	0	0	0	0	9	0	0	0	0	0	
3	0	0	0	0	9	0	0	0	0	0	
4	0	0	0	0	9	0	0	0	0	0	
5	0	0	0	0	9	0	0	0	0	0	
6	0	0	0	0	9	0	0	0	0	0	
7	0	0	0	0	9	0	0	0	0	0	
8	0	0	0	0	9	0	0	0	0	0	
9	0	0	0	0	9	0	0	0	0	0	
10	0	0	0	0	9	0	0	0	0	0	
11	0	0	0	0	9	0	0	0	0	0	
12	0	0	0	0	9	0	0	0	0	0	
13	0	0	0	0	9	0	0	0	0	0	
14	0	0	0	0	9	0	0	0	0	0	
15	0	0	0	0	9	0	0	0	0	0	
0	0	0	0	0	9	0	0	0	0	0	
1	0	0	0	0	9	0	0	0	0	0	
2	0	0	0	0	10	0	0	0	0	0	
3	0	0	0	0	9	0	0	0	0	0	
4	0	0	0	0	10	0	0	0	0	0	
5	0	0	0	0	9	0	0	0	0	0	
6	0	0	0	0	10	0	0	0	0	0	
7	0	0	0	0	9	0	0	0	0	0	
8	0	0	0	0	9	0	0	0	0	0	
9	0	0	0	0	9	0	0	0	0	0	
10	0	0	0	0	9	0	0	0	0	0	
11	0	0	0	0	9	0	0	0	0	0	
12	0	0	0	0	9	0	0	0	0	0	
13	0	0	0	0	9	0	0	0	0	0	
14	0	0	0	0	9	0	0	0	0	0	
15	0	0	0	0	9	0	0	0	0	0	
0	0	0	0	0	9	0	0	0	0	0	
1	0	0	0	0	9	0	0	0	0	0	
2	0	0	0	0	9	0	0	0	0	0	
3	0	0	0	0	9	0	0	0	0	0	
4	0	0	0	0	9	0	0	0	0	0	
5	0	0	0	0	9	0	0	0	0	0	
6	0	0	0	0	9	0	0	0	0	0	
7	0	0	0	0	9	0	0	0	0	0	
8	0	0	0	0	9	0	0	0	0	0	
9	0	0	0	0	8	0	0	0	0	0	
10	0	0	0	0	9	0	0	0	0	0	
11	0	0	0	0	8	0	0	0	0	0	
12	0	0	0	0	8	0	0	0	0	0	
13	0	0	0	0	8	0	0	0	0	0	
14	0	0	0	0	8	0	0	0	0	0	
15	0	0	0	0	8	0	0	0	0	0	
0	0	0	0	0	8	0	0	0	0	0	
1	0	0	0	0	8	0	0	0	0	0	
2	0	0	0	0	8	0	0	0	0	0	
3	0	0	0	0	8	0	0	0	0	0	
4	0	0	0	0	8	0	0	0	0	0	
5	0	0	0	0	8	0	0	0	0	0	
6	0	0	0	0	8	0	0	0	0	0	
7	0	0	0	0	8	0	0	0	0	0	
8	0	0	0	0	8	0	0	0	0	0	
9	0	0	0	0	8	0	0	0	0	0	
10	0	0	0	0	8	0	0	0	0	0	
11	0	0	0	0	8	0	0	0	0	0	
12	0	0	0	0	8	0	0	0	0	0	
13	0	0	0	0	8	0	0	0	0	0	
14	0	0	0	0	8	0	0	0	0	0	
15	0	0	0	0	8	0	0	0	0	0	
0	0	0	0	0	8	0	0	0	0	0	
1	0	0	0	0	8	0	0	0	0	0	
2	0	0	0	0	8	0	0	0	0	0	
3	0	0	0	0	7	0	0	0	0	0	
4	0	0	0	0	7	0	0	0	0	0	
5	0	0	0	0	7	0	0	0	0	0	
6	0	0	0	0	7	0	0	0	0	0	
7	0	0	0	0	7	0	0	0	0	0	
8	0	0	0	0	7	0	0	0	0	0	
9	0	0	0	0	7	0	0	0	0	0	
10	0	0	0	0	7	0	0	0	0	0	
11	0	0	0	0	7	0	0	0	0	0	
12	0	0	0	0	7	0	0	0	0	0	
13	0	0	0	0	8	0	0	0	0	0	
14	0	0	0	0	8	0	0	0	0	0	
15	0	0	0	0	8	0	0	0	0	0	
0	0	0	0	0	8	0	0	0	0	0	
1	0	0	0	0	7	0	0	0	0	0	
2	0	0	0	0	8	0	0	0	0	0	
3	0	0	0	0	7	0	0	0	0	0	
4	0	0	0	0	8	0	0	0	0	0	
5	0	0	0	0	8	0	0	0	0	0	
6	0	0	0	0	8	0	0	0	0	0	
7	0	0	0	0	8	0	0	0	0	0	
8	0	0	0	0	7	0	0	0	0	0	
9	0	0	0	0	7	0	0	0	0	0	
10	0	0	0	0	7	0	0	0	0	0	
11	0	0	0	0	7	0	0	0	0	0	
12	0	0	0	0	8	0	0	0	0	0	
13	0	0	0	0	8	0	0	0	0	0	
14	0	0	0	0	8	0	0	0	0	0	
15	0	0	0	0	8	0	0	0	0	0	
0	0	0	0	0	8	0	0	0	0	0	
1	0	0	0	0	8	0	0	0	0	0	
2	0	0	0	0	8	0	0	0	0	0	
3	0	0	0	0	8	0	0	0	0	0	
4	0	0	0	0	8	0	0	0	0	0	
5	0	0	0	0	8	0	0	0	0	0	
6	0	0	0	0	8	0	0	0	0	0	
7	0	0	0	0	8	0	0	0	0	0	
8	0	0	0	0	8	0	0	0	0	0	
9	0	0	0	0	8	0	0	0	0	0	
10	0	0	0	0	8	0	0	0	0	0	
11	0	0	0	0	8	0	0	0	0	0	
12	0	0	0	0	9	0	0	0	0	0	
13	0	0	0	0	9	0	0	0	0	0	
14	0	0	0	0	8	0	0	0	0	0	
15	0	0	0	0	8	0	0	0	0	0	
0	0	0	0	0	9	0	0	0	0	0	
1	0	0	0	0	8	0	0	0	0	0	
2	0	0	0	0	9	0	0	0	0	0	
3	0	0	0	0	9	0	0	0	0	0	
4	0	0	0	0	9	0	0	0	0	0	
5	0	0	0	0	9	0	0	0	0	0	
6	0	0	0	0	9	0	0	0	0	0	
7	0	0	0	0	9	0	0	0	0	0	
8	0	0	0	0	9	0	0	0	0	0	
9	0	0	0	0	9	0	0	0	0	0	
10	0	0	0	0	9	0	0	0	0	0	
11	0	0	0	0	9	0	0	0	0	0	
12	0	0	0	0	9	0	0	0	0	0	
13	0	0	0	0	9	0	0	0	0	0	
14	0	0	0	0	9	0	0	0	0	0	
15	0	0	0	0	9	0	0	0	0	0	
0	0	0	0	0	9	0	0	0	0	0	
1	0	0	0	0	9	0	0	0	0	0	
2	0	0	0	0	9	0	0	0	0	0	
3	0	0	0	0	9	0	0	0	0	0	
4	0	0	0	0	9	0	0	0	0	0	
5	0	0	0	0	9	0	0	0	0	0	
6	0	0	0	0	9	0	0	0	0	0	
7	0	0	0	0	9	0	0	0	0	0	
8	0	0	0	0	9	0	0	0	0	0	
9	0	0	0	0	9	0	0	0	0	0	
10	0	0	0	0	9	0	0	0	0	0	
11	0	0	0	0	9	0	0	0	0	0	
12	0	0	0	0	10	0	0	0	0	0	
13	0	0	0	0	10	0	0	0	0	0	
14	0	0	0	0	9	0	0	0	0	0	
15	0	0	0	0	9	0	0	0	0	0	
0	0	0	0	0	9	0	0	0	0	0	
1	0	0	0	0	9	0	0	0	0	0	
2	0	0	0	0	9	0	0	0	0	0	
3	0	0	0	0	9	0	0	0	0	0	
4	0	0	0	0	9	0	0	0	0	0	
5	0	0	0	0	9	0	0	0	0	0	
6	0	0	0	0	9	0	0	0	0	0	
7	0	0	0	0	9	0	0	0	0	0	
8	0	0	0	0	9	0	0	0	0	0	
9	0	0	0	0	9	0	0	0	0	0	
10	0	0	0	0	9	0	0	0	0	0	
11	0	0	0	0	9	0	0	0	0	0	
12	0	0	0	0	9	0	0	0	0	0	
13	0	0	0	0	9	0	0	0	0	0	
14	0	0	0	0	9	0	0	0	0	0	
15	0	0	0	0	9	0	0	0	0	0	
0	0	0	0	0	9	0	0	0	0	0	
1	0	0	0	0	9	0	0	0	0	0	
2	0	0	0	0	9	0	0	0	0	0	
3	0	0	0	0	9	0	0	0	0	0	
4	0	0	0	0	9	0	0	0	0	0	
5	0	0	0	0	9	0	0	0	0	0	
6	0	0	0	0	9	0	0	0	0	0	
7	0	0	0	0	9	0	0	0	0	0	
8	0	0	0	0	9	0	0	0	0	0	
9	0	0	0	0	9	0	0	0	0	0	
10	0	0	0	0	9	0	0	0	0	0	
11	0	0	0	0	9	0	0	0	0	0	
12	0	0	0	0	9	0	0	0	0	0	
13	0	0	0	0	9	0	0	0	0	0	
14	0	0	0	0	9	0	0	0	0	0	
15	0	0	0	0	9	0	0	0	0	0	
0	0	0	0	0	10	0	0	0	0	0	
1	0	0	0	0	10	0	0	0	0	0	
2	0	0	0	0	10	0	0	0	0	0	
3	0	0	0	0	10	0	0	0	0	0	
4	0	0	0	0	10	0	0	0	0	0	
5	0	0	0	0	10	0	0	0	0	0	
6	0	0	0	0	10	0	0	0	0	0	
7	0	0	0	0	10	0	0	0	0	0	
8	0	0	0	0	10	0	0	0	0	0	
9	0	0	0	0	10	0	0	0	0	0	
10	0	0	0	0	10	0	0	0	0	0	
11	0	0	0	0	10	0	0	0	0	0	
12	0	0	0	0	10	0	0	0	0	0	
13	0	0	0	0	10	0	0	0	0	0	
14	0	0	0	0	9	0	0	0	0	0	
15	0	0	0	0	10	0	0	0	0	0	
0	0	0	0	0	9	0	0	0	0	0	
1	0	0	0	0	9	0	0	0	0	0	
2	0	0	0	0	10	0	0	0	0	0	
3	0	0	0	0	10	0	0	0	0	0	
4	0	0	0	0	10	0	0	0	0	0	
5	0	0	0	0	10	0	0	0	0	0	
6	0	0	0	0	10	0	0	0	0	0	
7	0	0	0	0	10	0	0	0	0	0	
8	0	0	0	0	10	0	0	0	0	0	
9	0	0	0	0	10	0	0	0	0	0	
10	0	0	0	0	10	0	0	0	0	0	
11	0	0	0	0	10	0	0	0	0	0	
12	0	0	0	0	10	0	0	0	0	0	
13	0	0	0	0	10	0	0	0	0	0	
14	0	0	0	0	10	0	0	0	0	0	
15	0	0	0	0	10	0	0	0	0	0	
0	0	0	0	0	10	0	0	0	0	0	
1	0	0	0	0	10	0	0	0	0	0	
2	0	0	0	0	10	0	0	0	0	0	
3	0	0	0	0	10	0	0	0	0	0	
4	0	0	0	0	10	0	0	0	0	0	
5	0	0	0	0	10	0	0	0	0	0	
6	0	0	0	0	10	0	0	0	0	0	
7	0	0	0	0	10	0	0	0	0	0	
8	0	0	0	0	10	0	0	0	0	0	
9	0	0	0	0	10	0	0	0	0	0	
10	0	0	0	0	10	0	0	0	0	0	
11	0	0	0	0	10	0	0	0	0	0	
12	0	0	0	0	11	0	0	0	0	0	
13	0	0	0	0	11	0	0	0	0	0	
14	0	0	0	0	11	0	0	0	0	0	
15	0	0	0	0	10	0	0	0	0	0	
0	0	0	0	0	10	0	0	0	0	0	
1	0	0	0	0	10	0	0	0	0	0	
2	0	0	0	0	11	0	0	0	0	0	
3	0	0	0	0	11	0	0	0	0	0	
4	0	0	0	0	10	0	0	0	0	0	
5	0	0	0	0	10	0	0	0	0	0	
6	0	0	0	0	11	0	0	0	0	0	
7	0	0	0	0	11	0	0	0	0	0	
8	0	0	0	0	10	0	0	0	0	0	
9	0	0	0	0	10	0	0	0	0	0	
10	0	0	0	0	11	0	0	0	0	0	
11	0	0	0	0	11	0	0	0	0	0	
12	0	0	0	0	11	0	0	0	0	0	
13	0	0	0	0	11	0	0	0	0	0	
14	0	0	0	0	11	0	0	0	0	0	
15	0	0	0	0	11	0	0	0	0	0	
0	0	0	0	0	11	0	0	0	0	0	
1	0	0	0	0	11	0	0	0	0	0	
2	0	0	0	0	11	0	0	0	0	0	
3	0	0	0	0	11	0	0	0	0	0	
4	0	0	0	0	11	0	0	0	0	0	
5	0	0	0	0	11	0	0	0	0	0	
6	0	0	0	0	11	0	0	0	0	0	
7	0	0	0	0	11	0	0	0	0	0	
8	0	0	0	0	11	0	0	0	0	0	
9	0	0	0	0	11	0	0	0	0	0	
10	0	0	0	0	11	0	0	0	0	0	
11	0	0	0	0	11	0	0	0	0	0	
12	0	0	0	0	11	0	0	0	0	0	
13	0	0	0	0	11	0	0	0	0	0	
14	0	0	0	0	11	0	0	0	0	0	
15	0	0	0	0	11	0	0	0	0	0	
0	0	0	0	0	11	0	0	0	0	0	
1	0	0	0	0	11	0	0	0	0	0	
2	0	0	0	0	12	0	0	0	0	0	
3	0	0	0	0	11	0	0	0	0	0	
4	0	0	0	0	12	0	0	0	0	0	
5	0	0	0	0	12	0	0	0	0	0	
6	0	0	0	0	12	0	0	0	0	0	
7	0	0	0	0	12	0	0	0	0	0	
8	0	0	0	0	12	0	0	0	0	0	
9	0	0	0	0	12	0	0	0	0	0	
10	0	0	0	0	12	0	0	0	0	0	
11	0	0	0	0	12	0	0	0	0	0	
12	0	0	0	0	12	0	0	0	0	0	
13	0	0	0	0	12	0	0	0	0	0	
14	0	0	0	0	12	0	0	0	0	0	
15	0	0	0	0	12	0	0	0	0	0	
0	0	0	0	0	12	0	0	0	0	0	
1	0	0	0	0	12	0	0	0	0	0	
2	0	0	0	0	12	0	0	0	0	0	
3	0	0	0	0	13	0	0	0	0	0	
4	0	0	0	0	13	0	0	0	0	0	
5	0	0	0	0	13	0	0	0	0	0	
6	0	0	0	0	13	0	0	0	0	0	
7	0	0	0	0	13	0	0	0	0	0	
8	0	0	0	0	14	0	0	0	0	0	
9	0	0	0	0	14	0	0	0	0	0	
10	0	0	0	0	14	0	0	0	0	0	
11	0	0	0	0	14	0	0	0	0	0	
12	0	0	0	0	14	0	0	0	0	0	
13	0	0	0	0	14	0	0	0	0	0	
14	0	0	0	0	14	0	0	0	0	0	
15	0	0	0	0	14	0	0	0	0	0	
0	0	0	0	0	14	0	0	0	0	0	
1	0	0	0	0	14	0	0	0	0	0	
2	0	0	0	0	15	0	0	0	0	0	
3	0	0	0	0	15	0	0	0	0	0	
4	0	0	0	0	15	0	0	0	0	0	
5	0	0	0	0	15	0	0	0	0	0	
6	0	0	0	0	15	0	0	0	0	0	
7	0	0	0	0	15	0	0	0	0	0	
8	0	0	0	0	16	0	0	0	0	0	
9	0	0	0	0	16	0	0	0	0	0	
10	0	0	0	0	16	0	0	0	0	0	
11	0	0	0	0	16	0	0	0	0	0	
12	0	0	0	0	16	0	0	0	0	0	
13	0	0	0	0	17	0	0	0	0	0	
14	0	0	0	0	17	0	0	0	0	0	
15	0	0	0	0	17	0	0	0	0	0	
0	0	0	0	0	17	0	0	0	0	0	
1	0	0	0	0	17	0	0	0	0	0	
2	0	0	0	0	17	0	0	0	0	0	
3	0	0	0	0	17	0	0	0	0	0	
4	0	0	0	0	17	0	0	0	0	0	
5	0	0	0	0	18	0	0	0	0	0	
6	0	0	0	0	18	0	0	0	0	0	
7	0	0	0	0	18	0	0	0	0	0	
8	0	0	0	0	18	0	0	0	0	0	
9	0	0	0	0	18	0	0	0	0	0	
10	0	0	0	0	19	0	0	0	0	0	
11	0	0	0	0	19	0	0	0	0	0	
12	0	0	0	0	19	0	0	0	0	0	
13	0	0	0	0	20	0	0	0	0	0	
14	0	0	0	0	20	0	0	0	0	0	
15	0	0	0	0	20	0	0	0	0	0	
0	0	0	0	0	20	0	0	0	0	0	
1	0	0	0	0	20	0	0	0	0	0	
2	0	0	0	0	21	0	0	0	0	0	
3	0	0	0	0	21	0	0	0	0	0	
4	0	0	0	0	21	0	0	0	0	0	
5	0	0	0	0	21	0	0	0	0	0	
6	0	0	0	0	21	0	0	0	0	0	
7	0	0	0	0	22	0	0	0	0	0	
8	0	0	0	0	22	0	0	0	0	0	
9	0	0	0	0	22	0	0	0	0	0	
10	0	0	0	0	22	0	0	0	0	0	
11	0	0	0	0	22	0	0	0	0	0	
12	0	0	0	0	23	0	0	0	0	0	
13	0	0	0	0	23	0	0	0	0	0	
14	0	0	0	0	23	0	0	0	0	0	
15	0	0	0	0	23	0	0	0	0	0	
0	0	0	0	0	23	0	0	0	0	0	
1	0	0	0	0	24	0	0	0	0	0	
2	0	0	0	0	24	0	0	0	0	0	
3	0	0	0	0	24	0	0	0	0	0	
4	0	0	0	0	24	0	0	0	0	0	
5	0	0	0	0	25	0	0	0	0	0	
6	0	0	0	0	25	0	0	0	0	0	
7	0	0	0	0	25	0	0	0	0	0	
8	0	0	0	0	25	0	0	0	0	0	
9	0	0	0	0	25	0	0	0	0	0	
10	0	0	0	0	25	0	0	0	0	0	
11	0	0	0	0	25	0	0	0	0	0	
12	0	0	0	0	25	0	0	0	0	0	
13	0	0	0	0	26	0	0	0	0	0	
14	0	0	0	0	26	0	0	0	0	0	
15	0	0	0	0	26	0	0	0	0	0	
0	0	0	0	0	26	0	0	0	0	0	
1	0	0	0	0	26	0	0	0	0	0	
2	0	0	0	0	27	0	0	0	0	0	
3	0	0	0	0	27	0	0	0	0	0	
4	0	0	0	0	27	0	0	0	0	0	
5	0	0	0	0	27	0	0	0	0	0	
6	0	0	0	0	28	0	0	0	0	0	
7	0	0	0	0	28	0	0	0	0	0	
8	0	0	0	0	28	0	0	0	0	0	
9	0	0	0	0	28	0	0	0	0	0	
10	0	0	0	0	28	0	0	0	0	0	
11	0	0	0	0	28	0	0	0	0	0	
12	0	0	0	0	29	0	0	0	0	0	
13	0	0	0	0	29	0	0	0	0	0	
14	0	0	0	0	29	0	0	0	0	0	
15	0	0	0	0	30	0	0	0	0	0	
0	0	0	0	0	29	0	0	0	0	0	
1	0	0	0	0	29	0	0	0	0	0	
2	0	0	0	0	30	0	0	0	0	0	
3	0	0	0	0	30	0	0	0	0	0	
4	0	0	0	0	30	0	0	0	0	0	
5	0	0	0	0	31	0	0	0	0	0	
6	0	0	0	0	31	0	0	0	0	0	
7	0	0	0	0	31	0	0	0	0	0	
8	0	0	0	0	31	0	0	0	0	0	
9	0	0	0	0	31	0	0	0	0	0	
10	0	0	0	0	32	0	0	0	0	0	
11	0	0	0	0	32	0	0	0	0	0	
12	0	0	0	0	33	0	0	0	0	0	
13	0	0	0	0	33	0	0	0	0	0	
14	0	0	0	0	33	0	0	0	0	0	
15	0	0	0	0	33	0	0	0	0	0	
0	0	0	0	0	33	0	0	0	0	0	
1	0	0	0	0	34	0	0	0	0	0	
2	0	0	0	0	34	0	0	0	0	0	
3	0	0	0	0	35	0	0	0	0	0	
4	0	0	0	0	35	0	0	0	0	0	
5	0	0	0	0	35	0	0	0	0	0	
6	0	0	0	0	35	0	0	0	0	0	
7	0	0	0	0	35	0	0	0	0	0	
8	0	0	0	0	36	0	0	0	0	0	
9	0	0	0	0	36	0	0	0	0	0	
10	0	0	0	0	36	0	0	0	0	0	
11	0	0	0	0	37	0	0	0	0	0	
12	0	0	0	0	37	0	0	0	0	0	
13	0	0	0	0	38	0	0	0	0	0	
14	0	0	0	0	38	0	0	0	0	0	
15	0	0	0	0	38	0	0	0	0	0	
0	0	0	0	0	39	0	0	0	0	0	
1	0	0	0	0	39	0	0	0	0	0	
2	0	0	0	0	39	0	0	0	0	0	
3	0	0	0	0	39	0	0	0	0	0	
4	0	0	0	0	40	0	0	0	0	0	
5	0	0	0	0	40	0	0	0	0	0	
6	0	0	0	0	40	0	0	0	0	0	
7	0	0	0	0	41	0	0	0	0	0	
8	0	0	0	0	41	0	0	0	0	0	
9	0	0	0	0	41	0	0	0	0	0	
10	0	0	0	0	41	0	0	0	0	0	
11	0	0	0	0	42	0	0	0	0	0	
12	0	0	0	0	42	0	0	0	0	0	
13	0	0	0	0	43	0	0	0	0	0	
14	0	0	0	0	43	0	0	0	0	0	
15	0	0	0	0	44	0	0	0	0	0	
0	0	0	0	0	44	0	0	0	0	0	
1	0	0	0	0	44	0	0	0	0	0	
2	0	0	0	0	44	0	0	0	0	0	
3	0	0	0	0	44	0	0	0	0	0	
4	0	0	0	0	45	0	0	0	0	0	
5	0	0	0	0	45	0	0	0	0	0	
6	0	0	0	0	46	0	0	0	0	0	
7	0	0	0	0	46	0	0	0	0	0	
8	0	0	0	0	46	0	0	0	0	0	
9	0	0	0	0	46	0	0	0	0	0	
10	0	0	0	0	46	0	0	0	0	0	
11	0	0	0	0	47	0	0	0	0	0	
12	0	0	0	0	47	0	0	0	0	0	
13	0	0	0	0	47	0	0	0	0	0	
14	0	0	0	0	47	0	0	0	0	0	
15	0	0	0	0	48	0	0	0	0	0	
0	0	0	0	0	48	0	0	0	0	0	
1	0	0	0	0	48	0	0	0	0	0	
2	0	0	0	0	49	0	0	0	0	0	
3	0	0	0	0	49	0	0	0	0	0	
4	0	0	0	0	49	0	0	0	0	0	
5	0	0	0	0	50	0	0	0	0	0	
6	0	0	0	0	50	0	0	0	0	0	
7	0	0	0	0	51	0	0	0	0	0	
8	0	0	0	0	51	0	0	0	0	0	
9	0	0	0	0	51	0	0	0	0	0	
10	0	0	0	0	51	0	0	0	0	0	
11	0	0	0	0	52	0	0	0	0	0	
12	0	0	0	0	52	0	0	0	0	0	
13	0	0	0	0	52	0	0	0	0	0	
14	0	0	0	0	53	0	0	0	0	0	
15	0	0	0	0	53	0	0	0	0	0	
0	0	0	0	0	54	0	0	0	0	0	
1	0	0	0	0	54	0	0	0	0	0	
2	0	0	0	0	54	0	0	0	0	0	
3	0	0	0	0	55	0	0	0	0	0	
4	0	0	0	0	55	0	0	0	0	0	
5	0	0	0	0	55	0	0	0	0	0	
6	0	0	0	0	56	0	0	0	0	0	
7	0	0	0	0	56	0	0	0	0	0	
8	0	0	0	0	57	0	0	0	0	0	
9	0	0	0	0	57	0	0	0	0	0	
10	0	0	0	0	57	0	0	0	0	0	
11	0	0	0	0	58	0	0	0	0	0	
12	0	0	0	0	59	0	0	0	0	0	
13	0	0	0	0	59	0	0	0	0	0	
14	0	0	0	0	60	0	0	0	0	0	
15	0	0	0	0	60	0	0	0	0	0	
0	0	0	0	0	60	0	0	0	0	0	
1	0	0	0	0	60	0	0	0	0	0	
2	0	0	0	0	61	0	0	0	0	0	
3	0	0	0	0	62	0	0	0	0	0	
4	0	0	0	0	62	0	0	0	0	0	
5	0	0	0	0	62	0	0	0	0	0	
6	0	0	0	0	63	0	0	0	0	0	
7	0	0	0	0	63	0	0	0	0	0	
8	0	0	0	0	63	0	0	0	0	0	
9	0	0	0	0	64	0	0	0	0	0	
10	0	0	0	0	64	0	0	0	0	0	
11	0	0	0	0	65	0	0	0	0	0	
12	0	0	0	0	65	0	0	0	0	0	
13	0	0	0	0	66	0	0	0	0	0	
14	0	0	0	0	66	0	0	0	0	0	
15	0	0	0	0	67	0	0	0	0	0	
0	0	0	0	0	67	0	0	0	0	0	
1	0	0	0	0	67	0	0	0	0	0	
2	0	0	0	0	68	0	0	0	0	0	
3	0	0	0	0	68	0	0	0	0	0	
4	0	0	0	0	69	0	0	0	0	0	
5	0	0	0	0	69	0	0	0	0	0	
6	0	0	0	0	70	0	0	0	0	0	
7	0	0	0	0	70	0	0	0	0	0	
8	0	0	0	0	70	0	0	0	0	0	
9	0	0	0	0	71	0	0	0	0	0	
10	0	0	0	0	71	0	0	0	0	0	
11	0	0	0	0	71	0	0	0	0	0	
12	0	0	0	0	72	0	0	0	0	0	
13	0	0	0	0	72	0	0	0	0	0	
14	0	0	0	0	72	0	0	0	0	0	
15	0	0	0	0	73	0	0	0	0	0	
0	0	0	0	0	73	0	0	0	0	0	
1	0	0	0	0	74	0	0	0	0	0	
2	0	0	0	0	74	0	0	0	0	0	
3	0	0	0	0	75	0	0	0	0	0	
4	0	0	0	0	75	0	0	0	0	0	
5	0	0	0	0	75	0	0	0	0	0	
6	0	0	0	0	76	0	0	0	0	0	
7	0	0	0	0	76	0	0	0	0	0	
8	0	0	0	0	76	0	0	0	0	0	
9	0	0	0	0	76	0	0	0	0	0	
10	0	0	0	0	77	0	0	0	0	0	
11	0	0	0	0	77	0	0	0	0	0	
12	0	0	0	0	77	0	0	0	0	0	
13	0	0	0	0	78	0	0	0	0	0	
14	0	0	0	0	78	0	0	0	0	0	
15	0	0	0	0	78	0	0	0	0	0	
0	0	0	0	0	79	0	0	0	0	0	
1	0	0	0	0	79	0	0	0	0	0	
2	0	0	0	0	79	0	0	0	0	0	
3	0	0	0	0	79	0	0	0	0	0	
4	0	0	0	0	80	0	0	0	0	0	
5	0	0	0	0	80	0	0	0	0	0	
6	0	0	0	0	80	0	0	0	0	0	
7	0	0	0	0	81	0	0	0	0	0	
8	0	0	0	0	81	0	0	0	0	0	
9	0	0	0	0	81	0	0	0	0	0	
10	0	0	0	0	82	0	0	0	0	0	
11	0	0	0	0	82	0	0	0	0	0	
12	0	0	0	0	82	0	0	0	0	0	
13	0	0	0	0	82	0	0	0	0	0	
14	0	0	0	0	83	0	0	0	0	0	
15	0	0	0	0	83	0	0	0	0	0	
0	0	0	0	0	83	0	0	0	0	0	
1	0	0	0	0	83	0	0	0	0	0	
2	0	0	0	0	83	0	0	0	0	0	
3	0	0	0	0	83	0	0	0	0	0	
4	0	0	0	0	84	0	0	0	0	0	
5	0	0	0	0	84	0	0	0	0	0	
6	0	0	0	0	84	0	0	0	0	0	
7	0	0	0	0	84	0	0	0	0	0	
8	0	0	0	0	85	0	0	0	0	0	
9	0	0	0	0	85	0	0	0	0	0	
10	0	0	0	0	86	0	0	0	0	0	
11	0	0	0	0	86	0	0	0	0	0	
12	0	0	0	0	86	0	0	0	0	0	
13	0	0	0	0	87	0	0	0	0	0	
14	0	0	0	0	87	0	0	0	0	0	
15	0	0	0	0	87	0	0	0	0	0	
0	0	0	0	0	87	0	0	0	0	0	
1	0	0	0	0	87	0	0	0	0	0	
2	0	0	0	0	87	0	0	0	0	0	
3	0	0	0	0	88	0	0	0	0	0	
4	0	0	0	0	88	0	0	0	0	0	
5	0	0	0	0	88	0	0	0	0	0	
6	0	0	0	0	88	0	0	0	0	0	
7	0	0	0	0	89	0	0	0	0	0	
8	0	0	0	0	89	0	0	0	0	0	
9	0	0	0	0	89	0	0	0	0	0	
10	0	0	0	0	89	0	0	0	0	0	
11	0	0	0	0	90	0	0	0	0	0	
12	0	0	0	0	91	0	0	0	0	0	
13	0	0	0	0	91	0	0	0	0	0	
14	0	0	0	0	91	0	0	0	0	0	
15	0	0	0	0	91	0	0	0	0	0	
0	0	0	0	0	92	0	0	0	0	0	
1	0	0	0	0	92	0	0	0	0	0	
2	0	0	0	0	92	0	0	0	0	0	
3	0	0	0	0	92	0	0	0	0	0	
4	0	0	0	0	93	0	0	0	0	0	
5	0	0	0	0	93	0	0	0	0	0	
6	0	0	0	0	93	0	0	0	0	0	
7	0	0	0	0	94	0	0	0	0	0	
8	0	0	0	0	94	0	0	0	0	0	
9	0	0	0	0	94	0	0	0	0	0	
10	0	0	0	0	95	0	0	0	0	0	
11	0	0	0	0	95	0	0	0	0	0	
12	0	0	0	0	95	0	0	0	0	0	
13	0	0	0	0	95	0	0	0	0	0	
14	0	0	0	0	96	0	0	0	0	0	
15	0	0	0	0	96	0	0	0	0	0	
0	0	0	0	0	96	0	0	0	0	0	
1	0	0	0	0	97	0	0	0	0	0	
2	0	0	0	0	97	0	0	0	0	0	
3	0	0	0	0	98	0	0	0	0	0	
4	0	0	0	0	98	0	0	0	0	0	
5	0	0	0	0	98	0	0	0	0	0	
6	0	0	0	0	99	0	0	0	0	0	
7	0	0	0	0	99	0	0	0	0	0	
8	0	0	0	0	99	0	0	0	0	0	
9	0	0	0	0	99	0	0	0	0	0	
10	0	0	0	0	100	0	0	0	0	0	
11	0	0	0	0	100	0	0	0	0	0	
12	0	0	0	0	100	0	0	0	0	0	
13	0	0	0	0	101	0	0	0	0	0	
14	0	0	0	0	101	0	0	0	0	0	
15	0	0	0	0	101	0	0	0	0	0	
0	0	0	0	0	102	0	0	0	0	0	
1	0	0	0	0	102	0	0	0	0	0	
2	0	0	0	0	102	0	0	0	0	0	
3	0	0	0	0	103	0	0	0	0	0	
4	0	0	0	0	103	0	0	0	0	0	
5	0	0	0	0	103	0	0	0	0	0	
6	0	0	0	0	104	0	0	0	0	0	
7	0	0	0	0	104	0	0	0	0	0	
8	0	0	0	0	104	0	0	0	0	0	
9	0	0	0	0	104	0	0	0	0	0	
10	0	0	0	0	105	0	0	0	0	0	
11	0	0	0	0	105	0	0	0	0	0	
12	0	0	0	0	105	0	0	0	0	0	
13	0	0	0	0	106	0	0	0	0	0	
14	0	0	0	0	106	0	0	0	0	0	
15	0	0	0	0	106	0	0	0	0	0	
0	0	0	0	0	107	0	0	0	0	0	
1	0	0	0	0	107	0	0	0	0	0	
2	0	0	0	0	107	0	0	0	0	0	
3	0	0	0	0	107	0	0	0	0	0	
4	0	0	0	0	108	0	0	0	0	0	
5	0	0	0	0	108	0	0	0	0	0	
6	0	0	0	0	108	0	0	0	0	0	
7	0	0	0	0	109	0	0	0	0	0	
8	0	0	0	0	109	0	0	0	0	0	
9	0	0	0	0	110	0	0	0	0	0	
10	0	0	0	0	110	0	0	0	0	0	
11	0	0	0	0	110	0	0	0	0	0	
12	0	0	0	0	111	0	0	0	0	0	
13	0	0	0	0	111	0	0	0	0	0	
14	0	0	0	0	111	0	0	0	0	0	
15	0	0	0	0	111	0	0	0	0	0	
0	0	0	0	0	112	0	0	0	0	0	
1	0	0	0	0	112	0	0	0	0	0	
2	0	0	0	0	112	0	0	0	0	0	
3	0	0	0	0	112	0	0	0	0	0	
4	0	0	0	0	113	0	0	0	0	0	
5	0	0	0	0	113	0	0	0	0	0	
6	0	0	0	0	113	0	0	0	0	0	
7	0	0	0	0	114	0	0	0	0	0	
8	0	0	0	0	114	0	0	0	0	0	
9	0	0	0	0	114	0	0	0	0	0	
10	0	0	0	0	115	0	0	0	0	0	
11	0	0	0	0	115	0	0	0	0	0	
12	0	0	0	0	115	0	0	0	0	0	
13	0	0	0	0	116	0	0	0	0	0	
14	0	0	0	0	116	0	0	0	0	0	
15	0	0	0	0	116	0	0	0	0	0	
0	0	0	0	0	117	0	0	0	0	0	
1	0	0	0	0	117	0	0	0	0	0	
2	0	0	0	0	117	0	0	0	0	0	
3	0	0	0	0	118	0	0	0	0	0	
4	0	0	0	0	118	0	0	0	0	0	
5	0	0	0	0	118	0	0	0	0	0	
6	0	0	0	0	119	0	0	0	0	0	
7	0	0	0	0	119	0	0	0	0	0	
8	0	0	0	0	119	0	0	0	0	0	
9	0	0	0	0	119	0	0	0	0	0	
10	0	0	0	0	120	0	0	0	0	0	
11	0	0	0	0	120	0	0	0	0	0	
12	0	0	0	0	120	0	0	0	0	0	
13	0	0	0	0	120	0	0	0	0	0	
14	0	0	0	0	121	0	0	0	0	0	
15	0	0	0	0	121	0	0	0	0	0	
0	0	0	0	0	121	0	0	0	0	0	
1	0	0	0	0	121	0	0	0	0	0	
2	0	0	0	0	122	0	0	0	0	0	
3	0	0	0	0	123	0	0	0	0	0	
4	0	0	0	0	123	0	0	0	0	0	
5	0	0	0	0	123	0	0	0	0	0	
6	0	0	0	0	123	0	0	0	0	0	
7	0	0	0	0	123	0	0	0	0	0	
8	0	0	0	0	124	0	0	0	0	0	
9	0	0	0	0	124	0	0	0	0	0	
10	0	0	0	0	124	0	0	0	0	0	
11	0	0	0	0	125	0	0	0	0	0	
12	0	0	0	0	125	0	0	0	0	0	
13	0	0	0	0	125	0	0	0	0	0	
14	0	0	0	0	125	0	0	0	0	0	
15	0	0	0	0	126	0	0	0	0	0	
0	0	0	0	0	126	0	0	0	0	0	
1	0	0	0	0	126	0	0	0	0	0	
2	0	0	0	0	127	0	0	0	0	0	
3	0	0	0	0	127	0	0	0	0	0	
4	0	0	0	0	127	0	0	0	0	0	
5	0	0	0	0	128	0	0	0	0	0	
6	0	0	0	0	128	0	0	0	0	0	
7	0	0	0	0	129	0	0	0	0	0	
8	0	0	0	0	129	0	0	0	0	0	
9	0	0	0	0	129	0	0	0	0	0	
10	0	0	0	0	130	0	0	0	0	0	
11	0	0	0	0	130	0	0	0	0	0	
12	0	0	0	0	131	0	0	0	0	0	
13	0	0	0	0	131	0	0	0	0	0	
14	0	0	0	0	131	0	0	0	0	0	
15	0	0	0	0	131	0	0	0	0	0	
0	0	0	0	0	132	0	0	0	0	0	
1	0	0	0	0	132	0	0	0	0	0	
2	0	0	0	0	132	0	0	0	0	0	
3	0	0	0	0	133	0	0	0	0	0	
4	0	0	0	0	133	0	0	0	0	0	
5	0	0	0	0	134	0	0	0	0	0	
6	0	0	0	0	134	0	0	0	0	0	
7	0	0	0	0	135	0	0	0	0	0	
8	0	0	0	0	135	0	0	0	0	0	
9	0	0	0	0	135	0	0	0	0	0	
10	0	0	0	0	135	0	0	0	0	0	
11	0	0	0	0	136	0	0	0	0	0	
12	0	0	0	0	137	0	0	0	0	0	
13	0	0	0	0	137	0	0	0	0	0	
14	0	0	0	0	137	0	0	0	0	0	
15	0	0	0	0	138	0	0	0	0	0	
0	0	0	0	0	138	0	0	0	0	0	
1	0	0	0	0	138	0	0	0	0	0	
2	0	0	0	0	139	0	0	0	0	0	
3	0	0	0	0	139	0	0	0	0	0	
4	0	0	0	0	140	0	0	0	0	0	
5	0	0	0	0	140	0	0	0	0	0	
6	0	0	0	0	140	0	0	0	0	0	
7	0	0	0	0	141	0	0	0	0	0	
8	0	0	0	0	141	0	0	0	0	0	
9	0	0	0	0	141	0	0	0	0	0	
10	0	0	0	0	142	0	0	0	0	0	
11	0	0	0	0	142	0	0	0	0	0	
12	0	0	0	0	143	0	0	0	0	0	
13	0	0	0	0	143	0	0	0	0	0	
14	0	0	0	0	143	0	0	0	0	0	
15	0	0	0	0	144	0	0	0	0	0	
0	0	0	0	0	144	0	0	0	0	0	
1	0	0	0	0	144	0	0	0	0	0	
2	0	0	0	0	145	0	0	0	0	0	
3	0	0	0	0	145	0	0	0	0	0	
4	0	0	0	0	146	0	0	0	0	0	
5	0	0	0	0	146	0	0	0	0	0	
6	0	0	0	0	146	0	0	0	0	0	
7	0	0	0	0	147	0	0	0	0	0	
8	0	0	0	0	147	0	0	0	0	0	
9	0	0	0	0	147	0	0	0	0	0	
10	0	0	0	0	147	0	0	0	0	0	
11	0	0	0	0	148	0	0	0	0	0	
12	0	0	0	0	148	0	0	0	0	0	
13	0	0	0	0	149	0	0	0	0	0	
14	0	0	0	0	149	0	0	0	0	0	
15	0	0	0	0	150	0	0	0	0	0	
0	0	0	0	0	150	0	0	0	0	0	
1	0	0	0	0	150	0	0	0	0	0	
2	0	0	0	0	151	0	0	0	0	0	
3	0	0	0	0	151	0	0	0	0	0	
4	0	0	0	0	152	0	0	0	0	0	
5	0	0	0	0	152	0	0	0	0	0	
6	0	0	0	0	152	0	0	0	0	0	
7	0	0	0	0	153	0	0	0	0	0	
8	0	0	0	0	153	0	0	0	0	0	
9	0	0	0	0	153	0	0	0	0	0	
10	0	0	0	0	154	0	0	0	0	0	
11	0	0	0	0	154	0	0	0	0	0	
12	0	0	0	0	155	0	0	0	0	0	
13	0	0	0	0	155	0	0	0	0	0	
14	0	0	0	0	155	0	0	0	0	0	
15	0	0	0	0	156	0	0	0	0	0	
0	0	0	0	0	156	0	0	0	0	0	
1	0	0	0	0	156	0	0	0	0	0	
2	0	0	0	0	157	0	0	0	0	0	
3	0	0	0	0	158	0	0	0	0	0	
4	0	0	0	0	158	0	0	0	0	0	
5	0	0	0	0	159	0	0	0	0	0	
6	0	0	0	0	159	0	0	0	0	0	
7	0	0	0	0	159	0	0	0	0	0	
8	0	0	0	0	160	0	0	0	0	0	
9	0	0	0	0	160	0	0	0	0	0	
10	0	0	0	0	161	0	0	0	0	0	
11	0	0	0	0	161	0	0	0	0	0	
12	0	0	0	0	161	0	0	0	0	0	
13	0	0	0	0	162	0	0	0	0	0	
14	0	0	0	0	163	0	0	0	0	0	
15	0	0	0	0	163	0	0	0	0	0	
0	0	0	0	0	163	0	0	0	0	0	
1	0	0	0	0	163	0	0	0	0	0	
2	0	0	0	0	164	0	0	0	0	0	
3	0	0	0	0	165	0	0	0	0	0	
4	0	0	0	0	165	0	0	0	0	0	
5	0	0	0	0	166	0	0	0	0	0	
6	0	0	0	0	166	0	0	0	0	0	
7	0	0	0	0	167	0	0	0	0	0	
8	0	0	0	0	167	0	0	0	0	0	
9	0	0	0	0	167	0	0	0	0	0	
10	0	0	0	0	168	0	0	0	0	0	
11	0	0	0	0	169	0	0	0	0	0	
12	0	0	0	0	169	0	0	0	0	0	
13	0	0	0	0	170	0	0	0	0	0	
14	0	0	0	0	170	0	0	0	0	0	
15	0	0	0	0	171	0	0	0	0	0	
0	0	0	0	0	171	0	0	0	0	0	
1	0	0	0	0	171	0	0	0	0	0	
2	0	0	0	0	172	0	0	0	0	0	
3	0	0	0	0	172	0	0	0	0	0	
4	0	0	0	0	173	0	0	0	0	0	
5	0	0	0	0	173	0	0	0	0	0	
6	0	0	0	0	174	0	0	0	0	0	
7	0	0	0	0	174	0	0	0	0	0	
8	0	0	0	0	175	0	0	0	0	0	
9	0	0	0	0	175	0	0	0	0	0	
10	0	0	0	0	176	0	0	0	0	0	
11	0	0	0	0	176	0	0	0	0	0	
12	0	0	0	0	177	0	0	0	0	0	
13	0	0	0	0	177	0	0	0	0	0	
14	0	0	0	0	178	0	0	0	0	0	
15	0	0	0	0	178	0	0	0	0	0	
0	0	0	0	0	179	0	0	0	0	0	
1	0	0	0	0	179	0	0	0	0	0	
2	0	0	0	0	180	0	0	0	0	0	
3	0	0	0	0	180	0	0	0	0	0	
4	0	0	0	0	181	0	0	0	0	0	
5	0	0	0	0	181	0	0	0	0	0	
6	0	0	0	0	182	0	0	0	0	0	
7	0	0	0	0	182	0	0	0	0	0	
8	0	0	0	0	183	0	0	0	0	0	
9	0	0	0	0	183	0	0	0	0	0	
10	0	0	0	0	184	0	0	0	0	0	
11	0	0	0	0	184	0	0	0	0	0	
12	0	0	0	0	185	0	0	0	0	0	
13	0	0	0	0	185	0	0	0	0	0	
